step,epoch,hp_metric,lr-Adam,train/CER,train/DER,train/IER,train/SER,train/loss,train/lr,val/CER,val/DER,val/IER,val/SER,val/loss
0,,-1.0,,,,,,,,,,,,
8160,,,4.9929589295061305e-05,,,,,,,,,,,
8199,17.0,,,,,,,1.3386729955673218,,,,,,
8249,17.0,,,,,,,1.31864595413208,,,,,,
8299,17.0,,,,,,,1.324005126953125,,,,,,
8349,17.0,,,,,,,1.300124168395996,,,,,,
8399,17.0,,,,,,,1.2054920196533203,,,,,,
8449,17.0,,,,,,,1.08131742477417,,,,,,
8499,17.0,,,,,,,1.183580756187439,,,,,,
8549,17.0,,,,,,,1.0211350917816162,,,,,,
8599,17.0,,,,,,,1.2565224170684814,,,,,,
8639,17.0,,,0.0,0.0,0.0,0.0,,9.99999993922529e-09,30.261409759521484,2.6140894889831543,7.244129180908203,20.40319061279297,0.9469984173774719
8640,,,4.990805246052332e-05,,,,,,,,,,,
8649,18.0,,,,,,,1.1859045028686523,,,,,,
8699,18.0,,,,,,,1.0790858268737793,,,,,,
8749,18.0,,,,,,,1.2309588193893433,,,,,,
8799,18.0,,,,,,,1.0994313955307007,,,,,,
8849,18.0,,,,,,,0.9618208408355713,,,,,,
8899,18.0,,,,,,,0.9593096971511841,,,,,,
8949,18.0,,,,,,,1.3291666507720947,,,,,,
8999,18.0,,,,,,,1.0019171237945557,,,,,,
9049,18.0,,,,,,,1.182006597518921,,,,,,
9099,18.0,,,,,,,1.2519240379333496,,,,,,
9119,18.0,,,0.0,0.0,0.0,0.0,,9.99999993922529e-09,30.305715560913086,3.1014621257781982,6.513070583343506,20.69118309020996,0.9542636275291443
9120,,,4.9883645260706544e-05,,,,,,,,,,,
9149,19.0,,,,,,,1.105064868927002,,,,,,
9199,19.0,,,,,,,1.0247706174850464,,,,,,
9249,19.0,,,,,,,1.1856437921524048,,,,,,
9299,19.0,,,,,,,1.049048662185669,,,,,,
9349,19.0,,,,,,,1.1736485958099365,,,,,,
9399,19.0,,,,,,,0.9971500635147095,,,,,,
9449,19.0,,,,,,,0.9787809252738953,,,,,,
9499,19.0,,,,,,,1.3412551879882812,,,,,,
9549,19.0,,,,,,,0.7557188272476196,,,,,,
9599,19.0,,,0.0,0.0,0.0,0.0,0.9319199323654175,9.99999993922529e-09,28.533451080322266,4.607886791229248,3.9211342334747314,20.004430770874023,0.8871354460716248
9600,,,4.985637860954739e-05,,,,,,,,,,,
9649,20.0,,,,,,,1.1889817714691162,,,,,,
9699,20.0,,,,,,,1.021994709968567,,,,,,
9749,20.0,,,,,,,1.0927188396453857,,,,,,
9799,20.0,,,,,,,1.3083019256591797,,,,,,
9849,20.0,,,,,,,1.135172724723816,,,,,,
9899,20.0,,,,,,,1.19575035572052,,,,,,
9949,20.0,,,,,,,0.9835700988769531,,,,,,
9999,20.0,,,,,,,1.0224716663360596,,,,,,
10049,20.0,,,,,,,1.182347059249878,,,,,,
10079,20.0,,,0.0,0.0,0.0,0.0,,9.99999993922529e-09,27.40363311767578,3.322995185852051,5.139565944671631,18.941072463989258,0.8654527068138123
10080,,,4.982625614502467e-05,,,,,,,,,,,
10099,21.0,,,,,,,1.1126428842544556,,,,,,
10149,21.0,,,,,,,1.0750467777252197,,,,,,
10199,21.0,,,,,,,1.4093241691589355,,,,,,
10249,21.0,,,,,,,1.1440621614456177,,,,,,
10299,21.0,,,,,,,1.1697945594787598,,,,,,
10349,21.0,,,,,,,1.22649347782135,,,,,,
10399,21.0,,,,,,,1.0155384540557861,,,,,,
10449,21.0,,,,,,,1.087339997291565,,,,,,
10499,21.0,,,,,,,1.0676255226135254,,,,,,
10549,21.0,,,,,,,1.1699070930480957,,,,,,
10559,21.0,,,0.0,0.0,0.0,0.0,,9.99999993922529e-09,25.83074951171875,3.721754550933838,4.253433704376221,17.855560302734375,0.8190562129020691
10560,,,4.9793277867138386e-05,,,,,,,,,,,
10599,22.0,,,,,,,0.918441116809845,,,,,,
10649,22.0,,,,,,,1.0438573360443115,,,,,,
10699,22.0,,,,,,,0.8364710211753845,,,,,,
10749,22.0,,,,,,,1.1649284362792969,,,,,,
10799,22.0,,,,,,,1.3538475036621094,,,,,,
10849,22.0,,,,,,,0.9666832685470581,,,,,,
10899,22.0,,,,,,,1.024801254272461,,,,,,
10949,22.0,,,,,,,0.9589147567749023,,,,,,
10999,22.0,,,,,,,0.9155972003936768,,,,,,
11039,22.0,,,0.0,0.0,0.0,0.0,,9.99999993922529e-09,25.03322982788086,3.9432876110076904,3.633141279220581,17.45680046081543,0.793901264667511
11040,,,4.975744741386734e-05,,,,,,,,,,,
11049,23.0,,,,,,,1.0638339519500732,,,,,,
11099,23.0,,,,,,,0.9859059453010559,,,,,,
11149,23.0,,,,,,,1.0565601587295532,,,,,,
11199,23.0,,,,,,,0.8733642101287842,,,,,,
11249,23.0,,,,,,,1.0203018188476562,,,,,,
11299,23.0,,,,,,,0.7474071979522705,,,,,,
11349,23.0,,,,,,,1.0851781368255615,,,,,,
11399,23.0,,,,,,,1.0293526649475098,,,,,,
11449,23.0,,,,,,,0.8164040446281433,,,,,,
11499,23.0,,,,,,,1.2062634229660034,,,,,,
11519,23.0,,,0.0,0.0,0.0,0.0,,9.99999993922529e-09,25.58706283569336,2.5919361114501953,5.427558898925781,17.567567825317383,0.8034024834632874
11520,,,4.971876842319034e-05,,,,,,,,,,,
11549,24.0,,,,,,,1.0170823335647583,,,,,,
11599,24.0,,,,,,,0.8962773084640503,,,,,,
11649,24.0,,,,,,,1.1543657779693604,,,,,,
11699,24.0,,,,,,,1.0125501155853271,,,,,,
11749,24.0,,,,,,,1.0900859832763672,,,,,,
11799,24.0,,,,,,,1.224278450012207,,,,,,
11849,24.0,,,,,,,1.1406080722808838,,,,,,
11899,24.0,,,,,,,0.8722810745239258,,,,,,
11949,24.0,,,,,,,0.9035496711730957,,,,,,
11999,24.0,,,0.0,0.0,0.0,0.0,1.5263073444366455,9.99999993922529e-09,26.00797462463379,3.8546743392944336,4.452813625335693,17.70048713684082,0.8120816946029663
12000,,,4.9677248171065e-05,,,,,,,,,,,
12049,25.0,,,,,,,1.053281545639038,,,,,,
12099,25.0,,,,,,,0.9261521100997925,,,,,,
12149,25.0,,,,,,,1.0662767887115479,,,,,,
12199,25.0,,,,,,,1.3215398788452148,,,,,,
12249,25.0,,,,,,,0.996367335319519,,,,,,
12299,25.0,,,,,,,0.8835359811782837,,,,,,
12349,25.0,,,,,,,0.7650666236877441,,,,,,
12399,25.0,,,,,,,1.0201928615570068,,,,,,
12449,25.0,,,,,,,1.1074813604354858,,,,,,
12479,25.0,,,0.0,0.0,0.0,0.0,,9.99999993922529e-09,25.52060317993164,3.610988140106201,4.696499824523926,17.213115692138672,0.7964741587638855
12480,,,4.963289393344894e-05,,,,,,,,,,,
12499,26.0,,,,,,,1.0190964937210083,,,,,,
12549,26.0,,,,,,,1.092491626739502,,,,,,
12599,26.0,,,,,,,0.9642881155014038,,,,,,
12649,26.0,,,,,,,1.1718556880950928,,,,,,
12699,26.0,,,,,,,0.9123811721801758,,,,,,
12749,26.0,,,,,,,0.8804532885551453,,,,,,
12799,26.0,,,,,,,0.9464423656463623,,,,,,
12849,26.0,,,,,,,0.9370211958885193,,,,,,
12899,26.0,,,,,,,0.8827892541885376,,,,,,
12949,26.0,,,,,,,0.8740623593330383,,,,,,
12959,26.0,,,0.0,0.0,0.0,0.0,,9.99999993922529e-09,23.43819236755371,2.5033230781555176,4.7629594802856445,16.17190933227539,0.7285443544387817
12960,,,4.9585705710342154e-05,,,,,,,,,,,
12999,27.0,,,,,,,0.7883118987083435,,,,,,
13049,27.0,,,,,,,0.8397958874702454,,,,,,
13099,27.0,,,,,,,1.0796592235565186,,,,,,
13149,27.0,,,,,,,0.8276776075363159,,,,,,
13199,27.0,,,,,,,0.8262721300125122,,,,,,
13249,27.0,,,,,,,1.1335595846176147,,,,,,
13299,27.0,,,,,,,1.0335487127304077,,,,,,
13349,27.0,,,,,,,0.805641770362854,,,,,,
13399,27.0,,,,,,,0.8279778957366943,,,,,,
13439,27.0,,,0.0,0.0,0.0,0.0,,9.99999993922529e-09,22.972972869873047,2.813469171524048,4.7851128578186035,15.374390602111816,0.7237298488616943
13440,,,4.953569077770226e-05,,,,,,,,,,,
13449,28.0,,,,,,,0.7470766305923462,,,,,,
13499,28.0,,,,,,,0.6371371746063232,,,,,,
13549,28.0,,,,,,,1.1180086135864258,,,,,,
13599,28.0,,,,,,,1.1915383338928223,,,,,,
13649,28.0,,,,,,,0.7596782445907593,,,,,,
13699,28.0,,,,,,,0.7756505012512207,,,,,,
13749,28.0,,,,,,,1.0590839385986328,,,,,,
13799,28.0,,,,,,,1.0963540077209473,,,,,,
13849,28.0,,,,,,,0.8196616768836975,,,,,,
13899,28.0,,,,,,,0.7903737425804138,,,,,,
13919,28.0,,,0.0,0.0,0.0,0.0,,9.99999993922529e-09,22.374834060668945,3.145768642425537,3.8989808559417725,15.330083847045898,0.7100210189819336
13920,,,4.948285277350806e-05,,,,,,,,,,,
13949,29.0,,,,,,,1.0708379745483398,,,,,,
13999,29.0,,,,,,,0.9477981925010681,,,,,,
14049,29.0,,,,,,,0.823859453201294,,,,,,
14099,29.0,,,,,,,0.7017768621444702,,,,,,
14149,29.0,,,,,,,1.0447728633880615,,,,,,
14199,29.0,,,,,,,0.9534703493118286,,,,,,
14249,29.0,,,,,,,1.0873043537139893,,,,,,
14299,29.0,,,,,,,0.8870149850845337,,,,,,
14349,29.0,,,,,,,1.0787608623504639,,,,,,
14399,29.0,,,0.0,0.0,0.0,0.0,0.9939407110214233,9.99999993922529e-09,23.15019989013672,2.5254762172698975,5.449711799621582,15.175010681152344,0.7229354381561279
14400,,,4.9427202611695975e-05,,,,,,,,,,,
14449,30.0,,,,,,,1.1380749940872192,,,,,,
14499,30.0,,,,,,,0.8643605709075928,,,,,,
14549,30.0,,,,,,,0.8754703998565674,,,,,,
14599,30.0,,,,,,,0.8205397129058838,,,,,,
14649,30.0,,,,,,,0.9752784371376038,,,,,,
14699,30.0,,,,,,,0.8237178921699524,,,,,,
14749,30.0,,,,,,,0.8296076059341431,,,,,,
14799,30.0,,,,,,,0.7420521974563599,,,,,,
14849,30.0,,,,,,,0.7441912889480591,,,,,,
14879,30.0,,,0.0,0.0,0.0,0.0,,9.99999993922529e-09,21.466548919677734,2.9685423374176025,3.9654407501220703,14.532565116882324,0.6712125539779663
14880,,,4.936874393024482e-05,,,,,,,,,,,
14899,31.0,,,,,,,0.8415217399597168,,,,,,
14949,31.0,,,,,,,0.8374718427658081,,,,,,
14999,31.0,,,,,,,0.6937495470046997,,,,,,
15049,31.0,,,,,,,0.8742316365242004,,,,,,
15099,31.0,,,,,,,0.7629081010818481,,,,,,
15149,31.0,,,,,,,1.2952320575714111,,,,,,
15199,31.0,,,,,,,0.6040753126144409,,,,,,
15249,31.0,,,,,,,0.7903372049331665,,,,,,
15299,31.0,,,,,,,1.0848301649093628,,,,,,
15349,31.0,,,,,,,0.8719884753227234,,,,,,
15359,31.0,,,0.0,0.0,0.0,0.0,,9.99999993922529e-09,21.643774032592773,2.259636640548706,5.914931297302246,13.469206809997559,0.6884059309959412
15360,,,4.930748764309101e-05,,,,,,,,,,,
15399,32.0,,,,,,,0.9771162867546082,,,,,,
15449,32.0,,,,,,,0.9269075989723206,,,,,,
15499,32.0,,,,,,,0.6090920567512512,,,,,,
15549,32.0,,,,,,,0.8861766457557678,,,,,,
15599,32.0,,,,,,,0.9321345090866089,,,,,,
15649,32.0,,,,,,,0.9798797965049744,,,,,,
15699,32.0,,,,,,,0.8465173244476318,,,,,,
15749,32.0,,,,,,,0.7227495312690735,,,,,,
15799,32.0,,,,,,,0.7967525124549866,,,,,,
15839,32.0,,,0.0,0.0,0.0,0.0,,9.99999993922529e-09,22.33052635192871,2.769162654876709,4.8072662353515625,14.754097938537598,0.6915525197982788
15840,,,4.9243433750234544e-05,,,,,,,,,,,
15849,33.0,,,,,,,0.8594990968704224,,,,,,
15899,33.0,,,,,,,0.9836305379867554,,,,,,
15949,33.0,,,,,,,0.7822492122650146,,,,,,
15999,33.0,,,,,,,0.8944060802459717,,,,,,
16049,33.0,,,,,,,0.862707793712616,,,,,,
16099,33.0,,,,,,,0.8708956837654114,,,,,,
16149,33.0,,,,,,,0.79173344373703,,,,,,
16199,33.0,,,,,,,0.8465954065322876,,,,,,
16249,33.0,,,,,,,0.7194780111312866,,,,,,
16299,33.0,,,,,,,0.7632403373718262,,,,,,
16319,33.0,,,0.0,0.0,0.0,0.0,,9.99999993922529e-09,21.200708389282227,2.4590163230895996,5.272485733032227,13.469206809997559,0.6698422431945801
16320,,,4.917659316561185e-05,,,,,,,,,,,
16349,34.0,,,,,,,0.7435048222541809,,,,,,
16399,34.0,,,,,,,0.7182407975196838,,,,,,
16449,34.0,,,,,,,1.0812402963638306,,,,,,
16499,34.0,,,,,,,0.759147047996521,,,,,,
16549,34.0,,,,,,,0.9939464926719666,,,,,,
16599,34.0,,,,,,,0.9353015422821045,,,,,,
16649,34.0,,,,,,,0.7329306602478027,,,,,,
16699,34.0,,,,,,,0.9369819164276123,,,,,,
16749,34.0,,,,,,,0.7883073091506958,,,,,,
16799,34.0,,,0.0,0.0,0.0,0.0,0.8279739618301392,9.99999993922529e-09,20.181657791137695,3.0793087482452393,3.5002214908599854,13.602127075195312,0.6360237002372742
16800,,,4.9106973165180534e-05,,,,,,,,,,,
16849,35.0,,,,,,,0.7920012474060059,,,,,,
16899,35.0,,,,,,,0.7651899456977844,,,,,,
16949,35.0,,,,,,,0.858716607093811,,,,,,
16999,35.0,,,,,,,0.7028536796569824,,,,,,
17049,35.0,,,,,,,0.7420544624328613,,,,,,
17099,35.0,,,,,,,1.003752589225769,,,,,,
17149,35.0,,,,,,,0.985037624835968,,,,,,
17199,35.0,,,,,,,0.7775329351425171,,,,,,
17249,35.0,,,,,,,0.852456271648407,,,,,,
17279,35.0,,,0.0,0.0,0.0,0.0,,9.99999993922529e-09,19.89366340637207,2.680549383163452,4.7629594802856445,12.450155258178711,0.6426937580108643
17280,,,4.903458466287702e-05,,,,,,,,,,,
17299,36.0,,,,,,,0.7782706618309021,,,,,,
17349,36.0,,,,,,,0.6104416847229004,,,,,,
17399,36.0,,,,,,,0.5122262239456177,,,,,,
17449,36.0,,,,,,,0.9455216526985168,,,,,,
17499,36.0,,,,,,,0.8451470136642456,,,,,,
17549,36.0,,,,,,,0.7588510513305664,,,,,,
17599,36.0,,,,,,,0.7253607511520386,,,,,,
17649,36.0,,,,,,,0.9089840650558472,,,,,,
17699,36.0,,,,,,,0.8634510636329651,,,,,,
17749,36.0,,,,,,,0.9031208753585815,,,,,,
17759,36.0,,,0.0,0.0,0.0,0.0,,9.99999993922529e-09,20.602569580078125,3.4116082191467285,3.3451483249664307,13.845812797546387,0.6693200469017029
17760,,,4.895943493465893e-05,,,,,,,,,,,
17799,37.0,,,,,,,0.8712802529335022,,,,,,
17849,37.0,,,,,,,0.8242493867874146,,,,,,
17899,37.0,,,,,,,0.8572132587432861,,,,,,
17949,37.0,,,,,,,1.0209147930145264,,,,,,
17999,37.0,,,,,,,0.8347116708755493,,,,,,
18049,37.0,,,,,,,0.817808985710144,,,,,,
18099,37.0,,,,,,,0.7229384183883667,,,,,,
18149,37.0,,,,,,,0.7497742176055908,,,,,,
18199,37.0,,,,,,,0.7842578887939453,,,,,,
18239,37.0,,,0.0,0.0,0.0,0.0,,9.99999993922529e-09,19.805051803588867,2.5919361114501953,4.408506870269775,12.804608345031738,0.6253359913825989
18240,,,4.888153125648387e-05,,,,,,,,,,,
18249,38.0,,,,,,,0.8010234236717224,,,,,,
18299,38.0,,,,,,,0.9123457670211792,,,,,,
18349,38.0,,,,,,,0.6733970642089844,,,,,,
18399,38.0,,,,,,,0.7487785816192627,,,,,,
18449,38.0,,,,,,,0.6516077518463135,,,,,,
18499,38.0,,,,,,,0.8710874915122986,,,,,,
18549,38.0,,,,,,,0.6560245752334595,,,,,,
18599,38.0,,,,,,,0.7621923685073853,,,,,,
18649,38.0,,,,,,,0.7110871076583862,,,,,,
18699,38.0,,,,,,,0.8655426502227783,,,,,,
18719,38.0,,,0.0,0.0,0.0,0.0,,9.99999993922529e-09,20.890562057495117,2.303943395614624,4.652193069458008,13.934426307678223,0.6457407474517822
18720,,,4.880088454228826e-05,,,,,,,,,,,
18749,39.0,,,,,,,0.9949063658714294,,,,,,
18799,39.0,,,,,,,0.8764259815216064,,,,,,
18849,39.0,,,,,,,0.7151914834976196,,,,,,
18899,39.0,,,,,,,0.7875075340270996,,,,,,
18949,39.0,,,,,,,0.8004125356674194,,,,,,
18999,39.0,,,,,,,0.6560903787612915,,,,,,
19049,39.0,,,,,,,0.7836153507232666,,,,,,
19099,39.0,,,,,,,0.7222370505332947,,,,,,
19149,39.0,,,,,,,0.6340548992156982,,,,,,
19199,39.0,,,0.0,0.0,0.0,0.0,0.6767973303794861,9.99999993922529e-09,19.937971115112305,3.1236155033111572,3.3451483249664307,13.469206809997559,0.6241940855979919
19200,,,4.8717502068029717e-05,,,,,,,,,,,
19249,40.0,,,,,,,0.732261061668396,,,,,,
19299,40.0,,,,,,,0.5261503458023071,,,,,,
19349,40.0,,,,,,,0.7762225270271301,,,,,,
19399,40.0,,,,,,,1.1479445695877075,,,,,,
19449,40.0,,,,,,,0.8142558336257935,,,,,,
19499,40.0,,,,,,,0.6032509803771973,,,,,,
19549,40.0,,,,,,,0.7021865248680115,,,,,,
19599,40.0,,,,,,,1.034409761428833,,,,,,
19649,40.0,,,,,,,0.7087868452072144,,,,,,
19679,40.0,,,0.0,0.0,0.0,0.0,,9.99999993922529e-09,19.605670928955078,3.588834762573242,3.234381914138794,12.782454490661621,0.6201276779174805
19680,,,4.863139474764466e-05,,,,,,,,,,,
19699,41.0,,,,,,,0.7743678092956543,,,,,,
19749,41.0,,,,,,,0.8600367903709412,,,,,,
19799,41.0,,,,,,,1.0197055339813232,,,,,,
19849,41.0,,,,,,,0.9338734149932861,,,,,,
19899,41.0,,,,,,,0.8178454637527466,,,,,,
19949,41.0,,,,,,,0.7533987760543823,,,,,,
19999,41.0,,,,,,,0.6879950761795044,,,,,,
20049,41.0,,,,,,,0.5717002153396606,,,,,,
20099,41.0,,,,,,,0.7072241902351379,,,,,,
20149,41.0,,,,,,,0.644339919090271,,,,,,
20159,41.0,,,0.0,0.0,0.0,0.0,,9.99999993922529e-09,18.387239456176758,2.5697829723358154,3.7882144451141357,12.029242515563965,0.5931100249290466
20160,,,4.854257349506952e-05,,,,,,,,,,,
20199,42.0,,,,,,,0.5019655227661133,,,,,,
20249,42.0,,,,,,,0.883101224899292,,,,,,
20299,42.0,,,,,,,0.6832743883132935,,,,,,
20349,42.0,,,,,,,0.7363390922546387,,,,,,
20399,42.0,,,,,,,0.8464054465293884,,,,,,
20449,42.0,,,,,,,0.5754427313804626,,,,,,
20499,42.0,,,,,,,0.6797230243682861,,,,,,
20549,42.0,,,,,,,0.6455676555633545,,,,,,
20599,42.0,,,,,,,0.5618795156478882,,,,,,
20639,42.0,,,0.0,0.0,0.0,0.0,,9.99999993922529e-09,20.33673095703125,3.0793087482452393,3.322995185852051,13.934426307678223,0.6486642360687256
20640,,,4.8451049224240705e-05,,,,,,,,,,,
20649,43.0,,,,,,,0.7578341364860535,,,,,,
20699,43.0,,,,,,,0.6637833714485168,,,,,,
20749,43.0,,,,,,,0.850447416305542,,,,,,
20799,43.0,,,,,,,0.5124659538269043,,,,,,
20849,43.0,,,,,,,0.6937803030014038,,,,,,
20899,43.0,,,,,,,0.6536982655525208,,,,,,
20949,43.0,,,,,,,0.7485932111740112,,,,,,
20999,43.0,,,,,,,0.624670147895813,,,,,,
21049,43.0,,,,,,,0.5831416845321655,,,,,,
21099,43.0,,,,,,,0.8718770742416382,,,,,,
21119,43.0,,,0.0,0.0,0.0,0.0,,9.99999993922529e-09,18.586620330810547,3.699601173400879,3.0571556091308594,11.829862594604492,0.5982056260108948
21120,,,4.835682921111584e-05,,,,,,,,,,,
21149,44.0,,,,,,,0.6606465578079224,,,,,,
21199,44.0,,,,,,,0.594049334526062,,,,,,
21249,44.0,,,,,,,0.7061806917190552,,,,,,
21299,44.0,,,,,,,0.7737641334533691,,,,,,
21349,44.0,,,,,,,0.7500340938568115,,,,,,
21399,44.0,,,,,,,0.9058407545089722,,,,,,
21449,44.0,,,,,,,0.6744900345802307,,,,,,
21499,44.0,,,,,,,0.7914285659790039,,,,,,
21549,44.0,,,,,,,0.7283575534820557,,,,,,
21599,44.0,,,0.0,0.0,0.0,0.0,0.9965157508850098,9.99999993922529e-09,18.719539642333984,3.4337615966796875,3.167922019958496,12.1178560256958,0.5983883142471313
21600,,,4.825992800761014e-05,,,,,,,,,,,
21649,45.0,,,,,,,0.628334105014801,,,,,,
21699,45.0,,,,,,,0.8169846534729004,,,,,,
21749,45.0,,,,,,,0.5596975088119507,,,,,,
21799,45.0,,,,,,,0.6269762516021729,,,,,,
21849,45.0,,,,,,,0.5364859104156494,,,,,,
21899,45.0,,,,,,,0.7268435955047607,,,,,,
21949,45.0,,,,,,,0.684860110282898,,,,,,
21999,45.0,,,,,,,0.8654497861862183,,,,,,
22049,45.0,,,,,,,0.5252581834793091,,,,,,
22079,45.0,,,0.0,0.0,0.0,0.0,,9.99999993922529e-09,18.099246978759766,2.9906957149505615,3.8325209617614746,11.276030540466309,0.5712421536445618
22080,,,4.816035652766004e-05,,,,,,,,,,,
22099,46.0,,,,,,,0.6988691091537476,,,,,,
22149,46.0,,,,,,,0.43975597620010376,,,,,,
22199,46.0,,,,,,,0.8016401529312134,,,,,,
22249,46.0,,,,,,,0.687958300113678,,,,,,
22299,46.0,,,,,,,0.5990710854530334,,,,,,
22349,46.0,,,,,,,0.6596351861953735,,,,,,
22399,46.0,,,,,,,0.5450664758682251,,,,,,
22449,46.0,,,,,,,0.8215638995170593,,,,,,
22499,46.0,,,,,,,0.6284956932067871,,,,,,
22549,46.0,,,,,,,0.7215453386306763,,,,,,
22559,46.0,,,0.0,0.0,0.0,0.0,,9.99999993922529e-09,17.611873626708984,2.724855899810791,3.212228536605835,11.674789428710938,0.5653883218765259
22560,,,4.805812568520196e-05,,,,,,,,,,,
22599,47.0,,,,,,,0.6282870769500732,,,,,,
22649,47.0,,,,,,,0.562648355960846,,,,,,
22699,47.0,,,,,,,0.4721878170967102,,,,,,
22749,47.0,,,,,,,0.6260389089584351,,,,,,
22799,47.0,,,,,,,0.7940159440040588,,,,,,
22849,47.0,,,,,,,0.5818290710449219,,,,,,
22899,47.0,,,,,,,0.6733931303024292,,,,,,
22949,47.0,,,,,,,0.488346129655838,,,,,,
22999,47.0,,,,,,,0.5450118184089661,,,,,,
23039,47.0,,,0.0,0.0,0.0,0.0,,9.99999993922529e-09,18.520158767700195,2.9463889598846436,3.0350022315979004,12.53876781463623,0.5898879766464233
23040,,,4.795324639417231e-05,,,,,,,,,,,
23049,48.0,,,,,,,0.7451680898666382,,,,,,
23099,48.0,,,,,,,0.7502949237823486,,,,,,
23149,48.0,,,,,,,0.5464816689491272,,,,,,
23199,48.0,,,,,,,0.5289361476898193,,,,,,
23249,48.0,,,,,,,0.6660106182098389,,,,,,
23299,48.0,,,,,,,0.4353068470954895,,,,,,
23349,48.0,,,,,,,0.8010286092758179,,,,,,
23399,48.0,,,,,,,0.6326128244400024,,,,,,
23449,48.0,,,,,,,0.7888733148574829,,,,,,
23499,48.0,,,,,,,0.6938326358795166,,,,,,
23519,48.0,,,0.0,0.0,0.0,0.0,,9.99999993922529e-09,17.434648513793945,2.5697829723358154,3.7882144451141357,11.076650619506836,0.5628702044487
23520,,,4.784573320648633e-05,,,,,,,,,,,
23549,49.0,,,,,,,0.784502387046814,,,,,,
23599,49.0,,,,,,,0.6911126375198364,,,,,,
23649,49.0,,,,,,,0.5846914052963257,,,,,,
23699,49.0,,,,,,,0.6496201157569885,,,,,,
23749,49.0,,,,,,,0.6314831972122192,,,,,,
23799,49.0,,,,,,,0.5872403979301453,,,,,,
23849,49.0,,,,,,,0.6213257312774658,,,,,,
23899,49.0,,,,,,,0.690901517868042,,,,,,
23949,49.0,,,,,,,0.7748578786849976,,,,,,
23999,49.0,,,0.0,0.0,0.0,0.0,0.426748126745224,9.99999993922529e-09,17.14665412902832,2.680549383163452,2.9020824432373047,11.5640230178833,0.55408775806427
24000,,,4.7735597036080435e-05,,,,,,,,,,,
24049,50.0,,,,,,,0.7297087907791138,,,,,,
24099,50.0,,,,,,,0.6666402816772461,,,,,,
24149,50.0,,,,,,,0.6728110313415527,,,,,,
24199,50.0,,,,,,,0.6496175527572632,,,,,,
24249,50.0,,,,,,,0.7108384370803833,,,,,,
24299,50.0,,,,,,,0.6778537034988403,,,,,,
24349,50.0,,,,,,,0.6126449704170227,,,,,,
24399,50.0,,,,,,,0.6289563179016113,,,,,,
24449,50.0,,,,,,,0.40601420402526855,,,,,,
24479,50.0,,,0.0,0.0,0.0,0.0,,9.99999993922529e-09,17.70048713684082,2.8799290657043457,3.190075397491455,11.63048267364502,0.5721294283866882
24480,,,4.7622852434869856e-05,,,,,,,,,,,
24499,51.0,,,,,,,0.4873378872871399,,,,,,
24549,51.0,,,,,,,0.6113502383232117,,,,,,
24599,51.0,,,,,,,0.4985450208187103,,,,,,
24649,51.0,,,,,,,0.7556649446487427,,,,,,
24699,51.0,,,,,,,0.6313039064407349,,,,,,
24749,51.0,,,,,,,0.7148929238319397,,,,,,
24799,51.0,,,,,,,0.5421372056007385,,,,,,
24849,51.0,,,,,,,0.4786483943462372,,,,,,
24899,51.0,,,,,,,0.5333178043365479,,,,,,
24949,51.0,,,,,,,0.6824798583984375,,,,,,
24959,51.0,,,0.0,0.0,0.0,0.0,,9.99999993922529e-09,16.54851531982422,2.724855899810791,2.769162654876709,11.054496765136719,0.5397657155990601
24960,,,4.750751031679101e-05,,,,,,,,,,,
24999,52.0,,,,,,,0.7595824003219604,,,,,,
25049,52.0,,,,,,,0.5053104758262634,,,,,,
25099,52.0,,,,,,,0.7474747896194458,,,,,,
25149,52.0,,,,,,,0.5898063778877258,,,,,,
25199,52.0,,,,,,,0.8328161835670471,,,,,,
25249,52.0,,,,,,,0.46734046936035156,,,,,,
25299,52.0,,,,,,,0.5970866680145264,,,,,,
25349,52.0,,,,,,,0.5543381571769714,,,,,,
25399,52.0,,,,,,,0.5811797976493835,,,,,,
25439,52.0,,,0.0,0.0,0.0,0.0,,9.99999993922529e-09,17.124502182006836,2.8799290657043457,2.680549383163452,11.5640230178833,0.5519569516181946
25440,,,4.7389585233759135e-05,,,,,,,,,,,
25449,53.0,,,,,,,0.47965294122695923,,,,,,
25499,53.0,,,,,,,0.7269062995910645,,,,,,
25549,53.0,,,,,,,0.6125360727310181,,,,,,
25599,53.0,,,,,,,0.6431349515914917,,,,,,
25649,53.0,,,,,,,0.5330908298492432,,,,,,
25699,53.0,,,,,,,0.6166290640830994,,,,,,
25749,53.0,,,,,,,0.5524770617485046,,,,,,
25799,53.0,,,,,,,0.634172260761261,,,,,,
25849,53.0,,,,,,,0.6197100877761841,,,,,,
25899,53.0,,,,,,,0.5696977376937866,,,,,,
25919,53.0,,,0.0,0.0,0.0,0.0,,9.99999993922529e-09,17.235267639160156,2.5033230781555176,3.743907928466797,10.988037109375,0.5501077175140381
25920,,,4.726909173768945e-05,,,,,,,,,,,
25949,54.0,,,,,,,0.563692569732666,,,,,,
25999,54.0,,,,,,,0.5349876880645752,,,,,,
26049,54.0,,,,,,,0.601543664932251,,,,,,
26099,54.0,,,,,,,0.5436999797821045,,,,,,
26149,54.0,,,,,,,0.5269569158554077,,,,,,
26199,54.0,,,,,,,0.6189190149307251,,,,,,
26249,54.0,,,,,,,0.6028035879135132,,,,,,
26299,54.0,,,,,,,0.6306037902832031,,,,,,
26349,54.0,,,,,,,0.5695631504058838,,,,,,
26399,54.0,,,0.0,0.0,0.0,0.0,0.6245251893997192,9.99999993922529e-09,17.27957534790039,2.4368631839752197,3.190075397491455,11.652636528015137,0.5511540174484253
26400,,,4.714604438049719e-05,,,,,,,,,,,
26449,55.0,,,,,,,0.6102030277252197,,,,,,
26499,55.0,,,,,,,0.5965045094490051,,,,,,
26549,55.0,,,,,,,0.4159926474094391,,,,,,
26599,55.0,,,,,,,0.687828540802002,,,,,,
26649,55.0,,,,,,,0.8100811839103699,,,,,,
26699,55.0,,,,,,,0.5491902828216553,,,,,,
26749,55.0,,,,,,,0.7961289882659912,,,,,,
26799,55.0,,,,,,,0.5223944187164307,,,,,,
26849,55.0,,,,,,,0.7061128616333008,,,,,,
26879,55.0,,,0.0,0.0,0.0,0.0,,9.99999993922529e-09,16.304828643798828,1.9937970638275146,3.610988140106201,10.700044631958008,0.5319754481315613
26880,,,4.7020457714097574e-05,,,,,,,,,,,
26899,56.0,,,,,,,0.42819151282310486,,,,,,
26949,56.0,,,,,,,0.5506515502929688,,,,,,
26999,56.0,,,,,,,0.6589624285697937,,,,,,
27049,56.0,,,,,,,0.5870327949523926,,,,,,
27099,56.0,,,,,,,0.8281714916229248,,,,,,
27149,56.0,,,,,,,1.092048168182373,,,,,,
27199,56.0,,,,,,,0.6575586795806885,,,,,,
27249,56.0,,,,,,,0.5295971632003784,,,,,,
27299,56.0,,,,,,,0.3991743326187134,,,,,,
27349,56.0,,,,,,,0.4738251268863678,,,,,,
27359,56.0,,,0.0,0.0,0.0,0.0,,9.99999993922529e-09,16.304828643798828,2.171023368835449,3.212228536605835,10.921577453613281,0.5327296257019043
27360,,,4.689234265242703e-05,,,,,,,,,,,
27399,57.0,,,,,,,0.4656641185283661,,,,,,
27449,57.0,,,,,,,0.5433744788169861,,,,,,
27499,57.0,,,,,,,0.7542643547058105,,,,,,
27549,57.0,,,,,,,0.4972621202468872,,,,,,
27599,57.0,,,,,,,0.49406513571739197,,,,,,
27649,57.0,,,,,,,0.414483904838562,,,,,,
27699,57.0,,,,,,,0.5978123545646667,,,,,,
27749,57.0,,,,,,,0.5123484134674072,,,,,,
27799,57.0,,,,,,,0.6349179744720459,,,,,,
27839,57.0,,,0.0,0.0,0.0,0.0,,9.99999993922529e-09,16.526363372802734,2.4147098064422607,3.8546743392944336,10.256978034973145,0.5466108918190002
27840,,,4.67617173853796e-05,,,,,,,,,,,
27849,58.0,,,,,,,0.7174572944641113,,,,,,
27899,58.0,,,,,,,0.712877631187439,,,,,,
27949,58.0,,,,,,,0.5570205450057983,,,,,,
27999,58.0,,,,,,,0.4646289050579071,,,,,,
28049,58.0,,,,,,,0.5752192735671997,,,,,,
28099,58.0,,,,,,,0.5567622184753418,,,,,,
28149,58.0,,,,,,,0.5758609771728516,,,,,,
28199,58.0,,,,,,,0.46987128257751465,,,,,,
28249,58.0,,,,,,,0.7069075107574463,,,,,,
28299,58.0,,,,,,,0.6187254190444946,,,,,,
28319,58.0,,,0.0,0.0,0.0,0.0,,9.99999993922529e-09,16.105449676513672,2.769162654876709,2.5919361114501953,10.74435043334961,0.5382463335990906
28320,,,4.6628600102849305e-05,,,,,,,,,,,
28349,59.0,,,,,,,0.6087450981140137,,,,,,
28399,59.0,,,,,,,0.4811136722564697,,,,,,
28449,59.0,,,,,,,0.537410318851471,,,,,,
28499,59.0,,,,,,,0.5401367545127869,,,,,,
28549,59.0,,,,,,,0.622075617313385,,,,,,
28599,59.0,,,,,,,0.583279550075531,,,,,,
28649,59.0,,,,,,,0.4072129428386688,,,,,,
28699,59.0,,,,,,,0.5137051939964294,,,,,,
28749,59.0,,,,,,,0.4962717592716217,,,,,,
28799,59.0,,,0.0,0.0,0.0,0.0,0.6270867586135864,9.99999993922529e-09,16.4820556640625,2.5254762172698975,3.190075397491455,10.766504287719727,0.5314900279045105
28800,,,4.6493001718772575e-05,,,,,,,,,,,
28849,60.0,,,,,,,0.5683817267417908,,,,,,
28899,60.0,,,,,,,0.43242940306663513,,,,,,
28949,60.0,,,,,,,0.5685103535652161,,,,,,
28999,60.0,,,,,,,0.524278998374939,,,,,,
29049,60.0,,,,,,,0.5027219653129578,,,,,,
29099,60.0,,,,,,,0.46538984775543213,,,,,,
29149,60.0,,,,,,,0.4754088521003723,,,,,,
29199,60.0,,,,,,,0.670984148979187,,,,,,
29249,60.0,,,,,,,0.5035929083824158,,,,,,
29279,60.0,,,0.0,0.0,0.0,0.0,,9.99999993922529e-09,16.947275161743164,2.326096534729004,3.212228536605835,11.408949851989746,0.5534907579421997
29280,,,4.635493678506464e-05,,,,,,,,,,,
29299,61.0,,,,,,,0.5773969888687134,,,,,,
29349,61.0,,,,,,,0.6691272258758545,,,,,,
29399,61.0,,,,,,,0.37850049138069153,,,,,,
29449,61.0,,,,,,,0.45567935705184937,,,,,,
29499,61.0,,,,,,,0.5026054382324219,,,,,,
29549,61.0,,,,,,,0.5688577890396118,,,,,,
29599,61.0,,,,,,,0.5376771688461304,,,,,,
29649,61.0,,,,,,,0.439822793006897,,,,,,
29699,61.0,,,,,,,0.704432487487793,,,,,,
29749,61.0,,,,,,,0.6464651823043823,,,,,,
29759,61.0,,,0.0,0.0,0.0,0.0,,9.99999993922529e-09,15.773150444030762,1.9494904279708862,3.234381914138794,10.589278221130371,0.5275632739067078
29760,,,4.6214427129598334e-05,,,,,,,,,,,
29799,62.0,,,,,,,0.6038243174552917,,,,,,
29849,62.0,,,,,,,0.521489143371582,,,,,,
29899,62.0,,,,,,,0.5155618786811829,,,,,,
29949,62.0,,,,,,,0.39898332953453064,,,,,,
29999,62.0,,,,,,,0.4212375283241272,,,,,,
30049,62.0,,,,,,,0.6689966917037964,,,,,,
30099,62.0,,,,,,,0.6977097392082214,,,,,,
30149,62.0,,,,,,,0.595095694065094,,,,,,
30199,62.0,,,,,,,0.7202880382537842,,,,,,
30239,62.0,,,0.0,0.0,0.0,0.0,,9.99999993922529e-09,15.330083847045898,2.348249912261963,2.9685423374176025,10.01329231262207,0.5123950242996216
30240,,,4.6071487304288894e-05,,,,,,,,,,,
30249,63.0,,,,,,,0.38500142097473145,,,,,,
30299,63.0,,,,,,,0.46539774537086487,,,,,,
30349,63.0,,,,,,,0.3668425679206848,,,,,,
30399,63.0,,,,,,,0.3923785090446472,,,,,,
30449,63.0,,,,,,,0.5475022792816162,,,,,,
30499,63.0,,,,,,,0.548069179058075,,,,,,
30549,63.0,,,,,,,0.8405629396438599,,,,,,
30599,63.0,,,,,,,0.43265196681022644,,,,,,
30649,63.0,,,,,,,0.5424968004226685,,,,,,
30699,63.0,,,,,,,0.6085183620452881,,,,,,
30719,63.0,,,0.0,0.0,0.0,0.0,,9.99999993922529e-09,15.662384033203125,2.4368631839752197,2.6140894889831543,10.611431121826172,0.512755811214447
30720,,,4.5926131861051545e-05,,,,,,,,,,,
30749,64.0,,,,,,,0.4748023450374603,,,,,,
30799,64.0,,,,,,,0.467785507440567,,,,,,
30849,64.0,,,,,,,0.38279783725738525,,,,,,
30899,64.0,,,,,,,0.4952137768268585,,,,,,
30949,64.0,,,,,,,0.6222829818725586,,,,,,
30999,64.0,,,,,,,0.5885417461395264,,,,,,
31049,64.0,,,,,,,0.4419504404067993,,,,,,
31099,64.0,,,,,,,0.37747305631637573,,,,,,
31149,64.0,,,,,,,0.6235169768333435,,,,,,
31199,64.0,,,0.0,0.0,0.0,0.0,0.3256964683532715,9.99999993922529e-09,16.17190933227539,2.680549383163452,2.9906957149505615,10.500664710998535,0.5219997763633728
31200,,,4.577837898978032e-05,,,,,,,,,,,
31249,65.0,,,,,,,0.5113811492919922,,,,,,
31299,65.0,,,,,,,0.46903133392333984,,,,,,
31349,65.0,,,,,,,0.48507705330848694,,,,,,
31399,65.0,,,,,,,0.5549932718276978,,,,,,
31449,65.0,,,,,,,0.4183994233608246,,,,,,
31499,65.0,,,,,,,0.5332551002502441,,,,,,
31549,65.0,,,,,,,0.6078475713729858,,,,,,
31599,65.0,,,,,,,0.35712942481040955,,,,,,
31649,65.0,,,,,,,0.6049057841300964,,,,,,
31679,65.0,,,0.0,0.0,0.0,0.0,,9.99999993922529e-09,15.59592342376709,2.5254762172698975,2.835622549057007,10.234825134277344,0.5075885653495789
31680,,,4.562824688036926e-05,,,,,,,,,,,
31699,66.0,,,,,,,0.5997216701507568,,,,,,
31749,66.0,,,,,,,0.5200818777084351,,,,,,
31799,66.0,,,,,,,0.438864529132843,,,,,,
31849,66.0,,,,,,,0.34419217705726624,,,,,,
31899,66.0,,,,,,,0.3242151737213135,,,,,,
31949,66.0,,,,,,,0.38700053095817566,,,,,,
31999,66.0,,,,,,,0.34677597880363464,,,,,,
32049,66.0,,,,,,,0.3856291174888611,,,,,,
32099,66.0,,,,,,,0.287478506565094,,,,,,
32149,66.0,,,,,,,0.598515510559082,,,,,,
32159,66.0,,,0.0,0.0,0.0,0.0,,9.99999993922529e-09,15.50731086730957,2.237483501434326,2.835622549057007,10.434205055236816,0.5303988456726074
32160,,,4.54757537227124e-05,,,,,,,,,,,
32199,67.0,,,,,,,0.31548863649368286,,,,,,
32249,67.0,,,,,,,0.5917068719863892,,,,,,
32299,67.0,,,,,,,0.5204980373382568,,,,,,
32349,67.0,,,,,,,0.38851073384284973,,,,,,
32399,67.0,,,,,,,0.4332898259162903,,,,,,
32449,67.0,,,,,,,0.4578070044517517,,,,,,
32499,67.0,,,,,,,0.5294731259346008,,,,,,
32549,67.0,,,,,,,0.6487694382667542,,,,,,
32599,67.0,,,,,,,0.4908544421195984,,,,,,
32639,67.0,,,0.0,0.0,0.0,0.0,,9.99999993922529e-09,15.684536933898926,2.171023368835449,3.588834762573242,9.924678802490234,0.5192776918411255
32640,,,4.532091770670377e-05,,,,,,,,,,,
32649,68.0,,,,,,,0.4242026209831238,,,,,,
32699,68.0,,,,,,,0.38844436407089233,,,,,,
32749,68.0,,,,,,,0.4108020067214966,,,,,,
32799,68.0,,,,,,,0.5709851980209351,,,,,,
32849,68.0,,,,,,,0.36882469058036804,,,,,,
32899,68.0,,,,,,,0.28525447845458984,,,,,,
32949,68.0,,,,,,,0.5181742906570435,,,,,,
32999,68.0,,,,,,,0.6469715237617493,,,,,,
33049,68.0,,,,,,,0.575533390045166,,,,,,
33099,68.0,,,,,,,0.4310339093208313,,,,,,
33119,68.0,,,0.0,0.0,0.0,0.0,,9.99999993922529e-09,15.219317436218262,2.4147098064422607,3.0350022315979004,9.76960563659668,0.5139331817626953
33120,,,4.51637533842586e-05,,,,,,,,,,,
33149,69.0,,,,,,,0.6812795400619507,,,,,,
33199,69.0,,,,,,,0.569974422454834,,,,,,
33249,69.0,,,,,,,0.45262759923934937,,,,,,
33299,69.0,,,,,,,0.5302553772926331,,,,,,
33349,69.0,,,,,,,0.4133146405220032,,,,,,
33399,69.0,,,,,,,0.41477006673812866,,,,,,
33449,69.0,,,,,,,0.4808354675769806,,,,,,
33499,69.0,,,,,,,0.3752133548259735,,,,,,
33549,69.0,,,,,,,0.6721370816230774,,,,,,
33599,69.0,,,0.0,0.0,0.0,0.0,0.4427735507488251,9.99999993922529e-09,14.86486530303955,2.4368631839752197,2.8799290657043457,9.548072814941406,0.5147074460983276
33600,,,4.5004278945270926e-05,,,,,,,,,,,
33649,70.0,,,,,,,0.3362290561199188,,,,,,
33699,70.0,,,,,,,0.37577229738235474,,,,,,
33749,70.0,,,,,,,0.6005551815032959,,,,,,
33799,70.0,,,,,,,0.5299858450889587,,,,,,
33849,70.0,,,,,,,0.5122654438018799,,,,,,
33899,70.0,,,,,,,0.47171497344970703,,,,,,
33949,70.0,,,,,,,0.45554518699645996,,,,,,
33999,70.0,,,,,,,0.5218514800071716,,,,,,
34049,70.0,,,,,,,0.43811845779418945,,,,,,
34079,70.0,,,0.0,0.0,0.0,0.0,,9.99999993922529e-09,14.754097938537598,2.724855899810791,2.259636640548706,9.76960563659668,0.506129264831543
34080,,,4.48425198555924e-05,,,,,,,,,,,
34099,71.0,,,,,,,0.5653708577156067,,,,,,
34149,71.0,,,,,,,0.48321253061294556,,,,,,
34199,71.0,,,,,,,0.5806781649589539,,,,,,
34249,71.0,,,,,,,0.30032628774642944,,,,,,
34299,71.0,,,,,,,0.48250171542167664,,,,,,
34349,71.0,,,,,,,0.4472852647304535,,,,,,
34399,71.0,,,,,,,0.640231728553772,,,,,,
34449,71.0,,,,,,,0.6140685081481934,,,,,,
34499,71.0,,,,,,,0.6781399250030518,,,,,,
34549,71.0,,,,,,,0.6156347990036011,,,,,,
34559,71.0,,,0.0,0.0,0.0,0.0,,9.99999993922529e-09,15.042091369628906,2.702702760696411,2.6140894889831543,9.725298881530762,0.5180976390838623
34560,,,4.467848702915944e-05,,,,,,,,,,,
34599,72.0,,,,,,,0.49536994099617004,,,,,,
34649,72.0,,,,,,,0.5031566619873047,,,,,,
34699,72.0,,,,,,,0.6007965803146362,,,,,,
34749,72.0,,,,,,,0.5146301984786987,,,,,,
34799,72.0,,,,,,,0.6740329265594482,,,,,,
34849,72.0,,,,,,,0.2581530809402466,,,,,,
34899,72.0,,,,,,,0.5130707025527954,,,,,,
34949,72.0,,,,,,,0.6578876972198486,,,,,,
34999,72.0,,,,,,,0.468726247549057,,,,,,
35039,72.0,,,0.0,0.0,0.0,0.0,,9.99999993922529e-09,15.130704879760742,1.9273371696472168,3.4559149742126465,9.747452735900879,0.5140240788459778
35040,,,4.45122059318237e-05,,,,,,,,,,,
35049,73.0,,,,,,,0.4205767810344696,,,,,,
35099,73.0,,,,,,,0.4616040587425232,,,,,,
35149,73.0,,,,,,,0.42903614044189453,,,,,,
35199,73.0,,,,,,,0.4516909718513489,,,,,,
35249,73.0,,,,,,,0.3390452265739441,,,,,,
35299,73.0,,,,,,,0.3879799246788025,,,,,,
35349,73.0,,,,,,,0.4842817783355713,,,,,,
35399,73.0,,,,,,,0.36275696754455566,,,,,,
35449,73.0,,,,,,,0.40872493386268616,,,,,,
35499,73.0,,,,,,,0.47443804144859314,,,,,,
35519,73.0,,,0.0,0.0,0.0,0.0,,9.99999993922529e-09,14.510412216186523,2.4368631839752197,2.857775926589966,9.215773582458496,0.5036422610282898
35520,,,4.434369475347921e-05,,,,,,,,,,,
35549,74.0,,,,,,,0.7542078495025635,,,,,,
35599,74.0,,,,,,,0.34081923961639404,,,,,,
35649,74.0,,,,,,,0.27913594245910645,,,,,,
35699,74.0,,,,,,,0.3581588566303253,,,,,,
35749,74.0,,,,,,,0.506627082824707,,,,,,
35799,74.0,,,,,,,0.34797748923301697,,,,,,
35849,74.0,,,,,,,0.38300567865371704,,,,,,
35899,74.0,,,,,,,0.4610702395439148,,,,,,
35949,74.0,,,,,,,0.3487614393234253,,,,,,
35999,74.0,,,0.0,0.0,0.0,0.0,0.39076417684555054,9.99999993922529e-09,15.086398124694824,2.813469171524048,2.326096534729004,9.946831703186035,0.5053296089172363
36000,,,4.417297168402001e-05,,,,,,,,,,,
36049,75.0,,,,,,,0.6158203482627869,,,,,,
36099,75.0,,,,,,,0.4743008017539978,,,,,,
36149,75.0,,,,,,,0.526225745677948,,,,,,
36199,75.0,,,,,,,0.40693366527557373,,,,,,
36249,75.0,,,,,,,0.40445488691329956,,,,,,
36299,75.0,,,,,,,0.5373861193656921,,,,,,
36349,75.0,,,,,,,0.5886735916137695,,,,,,
36399,75.0,,,,,,,0.41330623626708984,,,,,,
36449,75.0,,,,,,,0.46711093187332153,,,,,,
36479,75.0,,,0.0,0.0,0.0,0.0,,9.99999993922529e-09,15.50731086730957,2.4147098064422607,2.9463889598846436,10.146211624145508,0.5045784711837769
36480,,,4.4000054913340136e-05,,,,,,,,,,,
36499,76.0,,,,,,,0.5224885940551758,,,,,,
36549,76.0,,,,,,,0.4591805338859558,,,,,,
36599,76.0,,,,,,,0.47725003957748413,,,,,,
36649,76.0,,,,,,,0.3331720232963562,,,,,,
36699,76.0,,,,,,,0.43756982684135437,,,,,,
36749,76.0,,,,,,,0.27969077229499817,,,,,,
36799,76.0,,,,,,,0.2919671833515167,,,,,,
36849,76.0,,,,,,,0.5690075159072876,,,,,,
36899,76.0,,,,,,,0.6406866908073425,,,,,,
36949,76.0,,,,,,,0.5517258644104004,,,,,,
36959,76.0,,,0.0,0.0,0.0,0.0,,9.99999993922529e-09,15.352237701416016,2.769162654876709,2.3925564289093018,10.190518379211426,0.5355091094970703
36960,,,4.3824969907291234e-05,,,,,,,,,,,
36999,77.0,,,,,,,0.556781530380249,,,,,,
37049,77.0,,,,,,,0.26246070861816406,,,,,,
37099,77.0,,,,,,,0.5514851808547974,,,,,,
37149,77.0,,,,,,,0.5091441869735718,,,,,,
37199,77.0,,,,,,,0.3586767911911011,,,,,,
37249,77.0,,,,,,,0.5684826970100403,,,,,,
37299,77.0,,,,,,,0.49568629264831543,,,,,,
37349,77.0,,,,,,,0.29326003789901733,,,,,,
37399,77.0,,,,,,,0.4328055679798126,,,,,,
37439,77.0,,,0.0,0.0,0.0,0.0,,9.99999993922529e-09,14.665485382080078,2.1267168521881104,3.1236155033111572,9.415152549743652,0.49174052476882935
37440,,,4.364773121778853e-05,,,,,,,,,,,
37449,78.0,,,,,,,0.47615039348602295,,,,,,
37499,78.0,,,,,,,0.679663896560669,,,,,,
37549,78.0,,,,,,,0.26377832889556885,,,,,,
37599,78.0,,,,,,,0.40652722120285034,,,,,,
37649,78.0,,,,,,,0.3736487627029419,,,,,,
37699,78.0,,,,,,,0.45669424533843994,,,,,,
37749,78.0,,,,,,,0.34400004148483276,,,,,,
37799,78.0,,,,,,,0.6330534219741821,,,,,,
37849,78.0,,,,,,,0.5717439651489258,,,,,,
37899,78.0,,,,,,,0.6008734703063965,,,,,,
37919,78.0,,,0.0,0.0,0.0,0.0,,9.99999993922529e-09,14.37749195098877,2.348249912261963,2.9242358207702637,9.105006217956543,0.5106252431869507
37920,,,4.346836431068368e-05,,,,,,,,,,,
37949,79.0,,,,,,,0.300814151763916,,,,,,
37999,79.0,,,,,,,0.5380368232727051,,,,,,
38049,79.0,,,,,,,0.6365768313407898,,,,,,
38099,79.0,,,,,,,0.3292974829673767,,,,,,
38149,79.0,,,,,,,0.46646779775619507,,,,,,
38199,79.0,,,,,,,0.5000472664833069,,,,,,
38249,79.0,,,,,,,0.6358606219291687,,,,,,
38299,79.0,,,,,,,0.4317425489425659,,,,,,
38349,79.0,,,,,,,0.3284456133842468,,,,,,
38399,79.0,,,0.0,0.0,0.0,0.0,0.4746638536453247,9.99999993922529e-09,14.554718971252441,2.215330123901367,3.0571556091308594,9.282233238220215,0.5043135285377502
38400,,,4.328689101384953e-05,,,,,,,,,,,
38449,80.0,,,,,,,0.35538241267204285,,,,,,
38499,80.0,,,,,,,0.4996268153190613,,,,,,
38549,80.0,,,,,,,0.495676189661026,,,,,,
38599,80.0,,,,,,,0.5634677410125732,,,,,,
38649,80.0,,,,,,,0.48772817850112915,,,,,,
38699,80.0,,,,,,,0.4044213593006134,,,,,,
38749,80.0,,,,,,,0.33978188037872314,,,,,,
38799,80.0,,,,,,,0.3670915961265564,,,,,,
38849,80.0,,,,,,,0.6392959356307983,,,,,,
38879,80.0,,,0.0,0.0,0.0,0.0,,9.99999993922529e-09,15.130704879760742,2.237483501434326,3.0128488540649414,9.880372047424316,0.526024341583252
38880,,,4.310332587920129e-05,,,,,,,,,,,
38899,81.0,,,,,,,0.4769691824913025,,,,,,
38949,81.0,,,,,,,0.35897111892700195,,,,,,
38999,81.0,,,,,,,0.33120790123939514,,,,,,
39049,81.0,,,,,,,0.4703560471534729,,,,,,
39099,81.0,,,,,,,0.33396586775779724,,,,,,
39149,81.0,,,,,,,0.31488269567489624,,,,,,
39199,81.0,,,,,,,0.4584227204322815,,,,,,
39249,81.0,,,,,,,0.38338959217071533,,,,,,
39299,81.0,,,,,,,0.4883500337600708,,,,,,
39349,81.0,,,,,,,0.410386323928833,,,,,,
39359,81.0,,,0.0,0.0,0.0,0.0,,9.99999993922529e-09,14.089499473571777,1.9937970638275146,2.791315793991089,9.304386138916016,0.49090299010276794
39360,,,4.291769801056944e-05,,,,,,,,,,,
39399,82.0,,,,,,,0.30763837695121765,,,,,,
39449,82.0,,,,,,,0.37249523401260376,,,,,,
39499,82.0,,,,,,,0.45532962679862976,,,,,,
39549,82.0,,,,,,,0.4823286533355713,,,,,,
39599,82.0,,,,,,,0.411878377199173,,,,,,
39649,82.0,,,,,,,0.41185855865478516,,,,,,
39699,82.0,,,,,,,0.4066210687160492,,,,,,
39749,82.0,,,,,,,0.26118215918540955,,,,,,
39799,82.0,,,,,,,0.43596774339675903,,,,,,
39839,82.0,,,0.0,0.0,0.0,0.0,,9.99999993922529e-09,14.62117862701416,3.0571556091308594,2.1045634746551514,9.45945930480957,0.5215898156166077
39840,,,4.2730025597848e-05,,,,,,,,,,,
39849,83.0,,,,,,,0.48028525710105896,,,,,,
39899,83.0,,,,,,,0.350200891494751,,,,,,
39949,83.0,,,,,,,0.3925723433494568,,,,,,
39999,83.0,,,,,,,0.33895137906074524,,,,,,
40049,83.0,,,,,,,0.6428430080413818,,,,,,
40099,83.0,,,,,,,0.25683754682540894,,,,,,
40149,83.0,,,,,,,0.42018091678619385,,,,,,
40199,83.0,,,,,,,0.36479830741882324,,,,,,
40249,83.0,,,,,,,0.33034899830818176,,,,,,
40299,83.0,,,,,,,0.2938181161880493,,,,,,
40319,83.0,,,0.0,0.0,0.0,0.0,,9.99999993922529e-09,14.532565116882324,2.1045634746551514,2.5919361114501953,9.836065292358398,0.5074074268341064
40320,,,4.2540330468909815e-05,,,,,,,,,,,
40349,84.0,,,,,,,0.2947356104850769,,,,,,
40399,84.0,,,,,,,0.38854384422302246,,,,,,
40449,84.0,,,,,,,0.4041227102279663,,,,,,
40499,84.0,,,,,,,0.43367210030555725,,,,,,
40549,84.0,,,,,,,0.33751657605171204,,,,,,
40599,84.0,,,,,,,0.2853623628616333,,,,,,
40649,84.0,,,,,,,0.28707408905029297,,,,,,
40699,84.0,,,,,,,0.419453501701355,,,,,,
40749,84.0,,,,,,,0.5052855610847473,,,,,,
40799,84.0,,,0.0,0.0,0.0,0.0,0.4529234766960144,9.99999993922529e-09,14.222418785095215,2.1267168521881104,2.835622549057007,9.260079383850098,0.5141481161117554
40800,,,4.234863808960654e-05,,,,,,,,,,,
40849,85.0,,,,,,,0.3918003439903259,,,,,,
40899,85.0,,,,,,,0.45579928159713745,,,,,,
40949,85.0,,,,,,,0.49185386300086975,,,,,,
40999,85.0,,,,,,,0.4535416066646576,,,,,,
41049,85.0,,,,,,,0.38764920830726624,,,,,,
41099,85.0,,,,,,,0.27868348360061646,,,,,,
41149,85.0,,,,,,,0.21690331399440765,,,,,,
41199,85.0,,,,,,,0.3964250385761261,,,,,,
41249,85.0,,,,,,,0.3303401470184326,,,,,,
41279,85.0,,,0.0,0.0,0.0,0.0,,9.99999993922529e-09,14.95347785949707,2.5033230781555176,2.6362428665161133,9.813912391662598,0.5495032072067261
41280,,,4.2154966649832204e-05,,,,,,,,,,,
41299,86.0,,,,,,,0.40804755687713623,,,,,,
41349,86.0,,,,,,,0.41661667823791504,,,,,,
41399,86.0,,,,,,,0.4307841360569,,,,,,
41449,86.0,,,,,,,0.387776255607605,,,,,,
41499,86.0,,,,,,,0.3433583378791809,,,,,,
41549,86.0,,,,,,,0.3648225665092468,,,,,,
41599,86.0,,,,,,,0.3295969069004059,,,,,,
41649,86.0,,,,,,,0.5779432058334351,,,,,,
41699,86.0,,,,,,,0.6036591529846191,,,,,,
41749,86.0,,,,,,,0.4055488705635071,,,,,,
41759,86.0,,,0.0,0.0,0.0,0.0,,9.99999993922529e-09,13.97873306274414,2.259636640548706,2.5476295948028564,9.171466827392578,0.5103890895843506
41760,,,4.1959337977459654e-05,,,,,,,,,,,
41799,87.0,,,,,,,0.3838195502758026,,,,,,
41849,87.0,,,,,,,0.27853161096572876,,,,,,
41899,87.0,,,,,,,0.4093652367591858,,,,,,
41949,87.0,,,,,,,0.3082686960697174,,,,,,
41999,87.0,,,,,,,0.38951414823532104,,,,,,
42049,87.0,,,,,,,0.2849363386631012,,,,,,
42050,87.0,,,,,,,,,13.97873306274414,2.259636640548706,2.5476295948028564,9.171466827392578,0.5103890895843506
