step,epoch,hp_metric,lr-Adam,train/CER,train/DER,train/IER,train/SER,train/loss,train/lr,val/CER,val/DER,val/IER,val/SER,val/loss
0,,-1.0,9.99999993922529e-09,,,,,,,,,,,
49,0.0,,,,,,,192.00250244140625,,,,,,
99,0.0,,,,,,,148.89886474609375,,,,,,
149,0.0,,,,,,,165.09588623046875,,,,,,
199,0.0,,,,,,,150.22984313964844,,,,,,
249,0.0,,,,,,,169.8545379638672,,,,,,
299,0.0,,,,,,,145.9654541015625,,,,,,
349,0.0,,,,,,,159.08753967285156,,,,,,
399,0.0,,,,,,,169.43788146972656,,,,,,
449,0.0,,,,,,,132.22039794921875,,,,,,
479,0.0,,,0.0,0.0,0.0,0.0,,9.99999993922529e-09,1285.7332763671875,1223.59326171875,0.08861320465803146,62.051395416259766,133.1930694580078
480,,,1.1199999789823778e-06,,,,,,,,,,,
499,1.0,,,,,,,148.66348266601562,,,,,,
549,1.0,,,,,,,160.18426513671875,,,,,,
599,1.0,,,,,,,110.76065826416016,,,,,,
649,1.0,,,,,,,151.5622100830078,,,,,,
699,1.0,,,,,,,147.46212768554688,,,,,,
749,1.0,,,,,,,127.34066772460938,,,,,,
799,1.0,,,,,,,120.28607177734375,,,,,,
849,1.0,,,,,,,105.60816955566406,,,,,,
899,1.0,,,,,,,127.88269805908203,,,,,,
949,1.0,,,,,,,173.56451416015625,,,,,,
959,1.0,,,0.0,0.0,0.0,0.0,,1.1199999789823778e-06,100.0,0.0,100.0,0.0,107.4944076538086
960,,,2.2300000637187622e-06,,,,,,,,,,,
999,2.0,,,,,,,112.1518325805664,,,,,,
1049,2.0,,,,,,,124.67147827148438,,,,,,
1099,2.0,,,,,,,103.15471649169922,,,,,,
1149,2.0,,,,,,,143.0006561279297,,,,,,
1199,2.0,,,,,,,106.11634826660156,,,,,,
1249,2.0,,,,,,,92.47146606445312,,,,,,
1299,2.0,,,,,,,96.55127716064453,,,,,,
1349,2.0,,,,,,,93.39712524414062,,,,,,
1399,2.0,,,,,,,95.805419921875,,,,,,
1439,2.0,,,0.0,0.0,0.0,0.0,,2.2300000637187622e-06,100.0,0.0,100.0,0.0,77.35540771484375
1440,,,3.3399999210814713e-06,,,,,,,,,,,
1449,3.0,,,,,,,99.21862030029297,,,,,,
1499,3.0,,,,,,,86.92324829101562,,,,,,
1549,3.0,,,,,,,65.4368896484375,,,,,,
1599,3.0,,,,,,,79.50074005126953,,,,,,
1649,3.0,,,,,,,71.04214477539062,,,,,,
1699,3.0,,,,,,,199.8896026611328,,,,,,
1749,3.0,,,,,,,53.53053283691406,,,,,,
1799,3.0,,,,,,,55.24060821533203,,,,,,
1849,3.0,,,,,,,47.27366638183594,,,,,,
1899,3.0,,,,,,,48.20830535888672,,,,,,
1919,3.0,,,0.0,0.0,0.0,0.0,,3.3399999210814713e-06,100.0,0.0,100.0,0.0,38.820655822753906
1920,,,4.44999977844418e-06,,,,,,,,,,,
1949,4.0,,,,,,,43.370384216308594,,,,,,
1999,4.0,,,,,,,40.6509895324707,,,,,,
2049,4.0,,,,,,,29.932109832763672,,,,,,
2099,4.0,,,,,,,26.354507446289062,,,,,,
2149,4.0,,,,,,,24.779743194580078,,,,,,
2199,4.0,,,,,,,20.567176818847656,,,,,,
2249,4.0,,,,,,,15.694402694702148,,,,,,
2299,4.0,,,,,,,16.211435317993164,,,,,,
2349,4.0,,,,,,,13.597721099853516,,,,,,
2399,4.0,,,0.0,0.0,0.0,0.0,15.412016868591309,4.44999977844418e-06,100.0,0.0,100.0,0.0,9.78560733795166
2400,,,5.559999863180565e-06,,,,,,,,,,,
2449,5.0,,,,,,,9.930390357971191,,,,,,
2499,5.0,,,,,,,7.935511589050293,,,,,,
2549,5.0,,,,,,,6.742530822753906,,,,,,
2599,5.0,,,,,,,5.575872898101807,,,,,,
2649,5.0,,,,,,,5.223127841949463,,,,,,
2699,5.0,,,,,,,5.110888957977295,,,,,,
2749,5.0,,,,,,,4.153040885925293,,,,,,
2799,5.0,,,,,,,3.9589200019836426,,,,,,
2849,5.0,,,,,,,3.634145975112915,,,,,,
2879,5.0,,,0.0,0.0,0.0,0.0,,5.559999863180565e-06,100.0,0.0,100.0,0.0,3.546874761581421
2880,,,6.669999947916949e-06,,,,,,,,,,,
2899,6.0,,,,,,,3.5747501850128174,,,,,,
2949,6.0,,,,,,,3.4675493240356445,,,,,,
2999,6.0,,,,,,,3.341818332672119,,,,,,
3049,6.0,,,,,,,3.833195686340332,,,,,,
3099,6.0,,,,,,,3.2703263759613037,,,,,,
3149,6.0,,,,,,,3.4952425956726074,,,,,,
3199,6.0,,,,,,,3.3344807624816895,,,,,,
3249,6.0,,,,,,,3.615570068359375,,,,,,
3299,6.0,,,,,,,3.3382818698883057,,,,,,
3349,6.0,,,,,,,3.3753628730773926,,,,,,
3359,6.0,,,0.0,0.0,0.0,0.0,,6.669999947916949e-06,100.0,0.0,100.0,0.0,3.2515316009521484
3360,,,7.779999577905983e-06,,,,,,,,,,,
3399,7.0,,,,,,,3.4045052528381348,,,,,,
3449,7.0,,,,,,,3.312056064605713,,,,,,
3499,7.0,,,,,,,3.320888042449951,,,,,,
3549,7.0,,,,,,,3.2043557167053223,,,,,,
3599,7.0,,,,,,,3.313141107559204,,,,,,
3649,7.0,,,,,,,3.194796085357666,,,,,,
3699,7.0,,,,,,,3.3628063201904297,,,,,,
3749,7.0,,,,,,,3.2489612102508545,,,,,,
3799,7.0,,,,,,,3.2681493759155273,,,,,,
3839,7.0,,,0.0,0.0,0.0,0.0,,7.779999577905983e-06,100.0,0.0,100.0,0.0,3.2130355834960938
3840,,,8.889999662642367e-06,,,,,,,,,,,
3849,8.0,,,,,,,3.485008955001831,,,,,,
3899,8.0,,,,,,,3.1808435916900635,,,,,,
3949,8.0,,,,,,,3.2247605323791504,,,,,,
3999,8.0,,,,,,,3.168079376220703,,,,,,
4049,8.0,,,,,,,3.157694101333618,,,,,,
4099,8.0,,,,,,,3.2502238750457764,,,,,,
4149,8.0,,,,,,,3.205169677734375,,,,,,
4199,8.0,,,,,,,3.2228124141693115,,,,,,
4249,8.0,,,,,,,3.240999460220337,,,,,,
4299,8.0,,,,,,,3.1832311153411865,,,,,,
4319,8.0,,,0.0,0.0,0.0,0.0,,8.889999662642367e-06,100.0,0.0,100.0,0.0,3.19997239112854
4320,,,9.999999747378752e-06,,,,,,,,,,,
4349,9.0,,,,,,,3.1250672340393066,,,,,,
4399,9.0,,,,,,,3.0782253742218018,,,,,,
4449,9.0,,,,,,,3.168455123901367,,,,,,
4499,9.0,,,,,,,3.255427122116089,,,,,,
4549,9.0,,,,,,,3.317183256149292,,,,,,
4599,9.0,,,,,,,3.3482165336608887,,,,,,
4649,9.0,,,,,,,3.204763412475586,,,,,,
4699,9.0,,,,,,,3.185220956802368,,,,,,
4749,9.0,,,,,,,3.1003475189208984,,,,,,
4799,9.0,,,0.0,0.0,0.0,0.0,3.0031566619873047,9.999999747378752e-06,100.0,0.0,100.0,0.0,3.0895235538482666
4800,,,9.999999747378752e-06,,,,,,,,,,,
4849,10.0,,,,,,,3.0690646171569824,,,,,,
4899,10.0,,,,,,,3.1805529594421387,,,,,,
4949,10.0,,,,,,,3.062282085418701,,,,,,
4999,10.0,,,,,,,3.089597702026367,,,,,,
5049,10.0,,,,,,,3.1141653060913086,,,,,,
5099,10.0,,,,,,,3.1865077018737793,,,,,,
5149,10.0,,,,,,,3.0810327529907227,,,,,,
5199,10.0,,,,,,,2.9939863681793213,,,,,,
5249,10.0,,,,,,,2.9577956199645996,,,,,,
5279,10.0,,,0.0,0.0,0.0,0.0,,9.999999747378752e-06,100.0,0.0,100.0,0.0,3.023110866546631
5280,,,9.999735993915237e-06,,,,,,,,,,,
5299,11.0,,,,,,,3.144102096557617,,,,,,
5349,11.0,,,,,,,2.99166202545166,,,,,,
5399,11.0,,,,,,,3.162534236907959,,,,,,
5449,11.0,,,,,,,3.092707395553589,,,,,,
5499,11.0,,,,,,,3.198151111602783,,,,,,
5549,11.0,,,,,,,2.9905738830566406,,,,,,
5599,11.0,,,,,,,2.976313829421997,,,,,,
5649,11.0,,,,,,,2.9094650745391846,,,,,,
5699,11.0,,,,,,,3.0110018253326416,,,,,,
5749,11.0,,,,,,,3.0333731174468994,,,,,,
5759,11.0,,,0.0,0.0,0.0,0.0,,9.999735993915237e-06,100.0,0.0,100.0,0.0,2.971933603286743
5760,,,9.998943824029993e-06,,,,,,,,,,,
5799,12.0,,,,,,,2.9257912635803223,,,,,,
5849,12.0,,,,,,,2.921196937561035,,,,,,
5899,12.0,,,,,,,3.146916389465332,,,,,,
5949,12.0,,,,,,,2.926293134689331,,,,,,
5999,12.0,,,,,,,3.115015983581543,,,,,,
6049,12.0,,,,,,,3.0065252780914307,,,,,,
6099,12.0,,,,,,,2.869778633117676,,,,,,
6149,12.0,,,,,,,3.060737133026123,,,,,,
6199,12.0,,,,,,,3.122105360031128,,,,,,
6239,12.0,,,0.0,0.0,0.0,0.0,,9.998943824029993e-06,100.0,0.0,100.0,0.0,2.910865306854248
6240,,,9.99762414721772e-06,,,,,,,,,,,
6249,13.0,,,,,,,3.119309186935425,,,,,,
6299,13.0,,,,,,,2.9547507762908936,,,,,,
6349,13.0,,,,,,,3.0302658081054688,,,,,,
6399,13.0,,,,,,,2.9369330406188965,,,,,,
6449,13.0,,,,,,,2.797067642211914,,,,,,
6499,13.0,,,,,,,2.9499447345733643,,,,,,
6549,13.0,,,,,,,2.97477650642395,,,,,,
6599,13.0,,,,,,,3.078000545501709,,,,,,
6649,13.0,,,,,,,3.0551881790161133,,,,,,
6699,13.0,,,,,,,2.8640317916870117,,,,,,
6719,13.0,,,0.0,0.0,0.0,0.0,,9.99762414721772e-06,100.0,0.0,100.0,0.0,2.8733532428741455
6720,,,9.995776053983718e-06,,,,,,,,,,,
6749,14.0,,,,,,,2.895484685897827,,,,,,
6799,14.0,,,,,,,3.0031208992004395,,,,,,
6849,14.0,,,,,,,2.9763474464416504,,,,,,
6899,14.0,,,,,,,2.895379066467285,,,,,,
6949,14.0,,,,,,,2.952694892883301,,,,,,
6999,14.0,,,,,,,2.9349923133850098,,,,,,
7049,14.0,,,,,,,2.971041440963745,,,,,,
7099,14.0,,,,,,,2.8915021419525146,,,,,,
7149,14.0,,,,,,,2.9148223400115967,,,,,,
7199,14.0,,,0.0,0.0,0.0,0.0,2.7719886302948,9.995776053983718e-06,97.67390441894531,0.0,97.65174865722656,0.022153301164507866,2.816249132156372
7200,,,9.993400453822687e-06,,,,,,,,,,,
7249,15.0,,,,,,,2.9652185440063477,,,,,,
7299,15.0,,,,,,,2.8923327922821045,,,,,,
7349,15.0,,,,,,,2.8167967796325684,,,,,,
7399,15.0,,,,,,,2.9169411659240723,,,,,,
7449,15.0,,,,,,,3.043283700942993,,,,,,
7499,15.0,,,,,,,3.0881459712982178,,,,,,
7549,15.0,,,,,,,2.803164482116699,,,,,,
7599,15.0,,,,,,,2.755052328109741,,,,,,
7649,15.0,,,,,,,2.8869004249572754,,,,,,
7679,15.0,,,0.0,0.0,0.0,0.0,,9.993400453822687e-06,96.65485382080078,0.0,96.58839416503906,0.06645990163087845,2.7269740104675293
7680,,,9.990497346734628e-06,,,,,,,,,,,
7699,16.0,,,,,,,2.867427349090576,,,,,,
7749,16.0,,,,,,,2.7005932331085205,,,,,,
7799,16.0,,,,,,,2.776123285293579,,,,,,
7849,16.0,,,,,,,2.849940776824951,,,,,,
7899,16.0,,,,,,,2.5851054191589355,,,,,,
7949,16.0,,,,,,,2.816499948501587,,,,,,
7999,16.0,,,,,,,2.7673168182373047,,,,,,
8049,16.0,,,,,,,2.711142063140869,,,,,,
8099,16.0,,,,,,,2.881870746612549,,,,,,
8149,16.0,,,,,,,2.7234227657318115,,,,,,
8159,16.0,,,0.0,0.0,0.0,0.0,,9.990497346734628e-06,87.10678100585938,0.0,84.9579086303711,2.1488702297210693,2.61238169670105
8160,,,9.987067642214242e-06,,,,,,,,,,,
8199,17.0,,,,,,,2.63364839553833,,,,,,
8249,17.0,,,,,,,2.6322150230407715,,,,,,
8299,17.0,,,,,,,2.7263917922973633,,,,,,
8349,17.0,,,,,,,2.620675802230835,,,,,,
8399,17.0,,,,,,,2.6215810775756836,,,,,,
8449,17.0,,,,,,,2.6265437602996826,,,,,,
8499,17.0,,,,,,,2.7122135162353516,,,,,,
8549,17.0,,,,,,,2.6145315170288086,,,,,,
8599,17.0,,,,,,,2.4035251140594482,,,,,,
8639,17.0,,,0.0,0.0,0.0,0.0,,9.987067642214242e-06,80.30571746826172,0.022153301164507866,72.04253387451172,8.24102783203125,2.4728472232818604
8640,,,9.98311134026153e-06,,,,,,,,,,,
8649,18.0,,,,,,,2.504063606262207,,,,,,
8699,18.0,,,,,,,2.5988433361053467,,,,,,
8749,18.0,,,,,,,2.6601810455322266,,,,,,
8799,18.0,,,,,,,2.5817298889160156,,,,,,
8849,18.0,,,,,,,2.553999900817871,,,,,,
8899,18.0,,,,,,,2.632081985473633,,,,,,
8949,18.0,,,,,,,2.4768857955932617,,,,,,
8999,18.0,,,,,,,2.5129318237304688,,,,,,
9049,18.0,,,,,,,2.5231218338012695,,,,,,
9099,18.0,,,,,,,2.466723680496216,,,,,,
9119,18.0,,,0.0,0.0,0.0,0.0,,9.98311134026153e-06,76.78334045410156,0.022153301164507866,65.77314758300781,10.988037109375,2.3792660236358643
9120,,,9.978628440876491e-06,,,,,,,,,,,
9149,19.0,,,,,,,2.4005401134490967,,,,,,
9199,19.0,,,,,,,2.4008302688598633,,,,,,
9249,19.0,,,,,,,2.502504825592041,,,,,,
9299,19.0,,,,,,,2.5630314350128174,,,,,,
9349,19.0,,,,,,,2.5556507110595703,,,,,,
9399,19.0,,,,,,,2.5300254821777344,,,,,,
9449,19.0,,,,,,,2.398214817047119,,,,,,
9499,19.0,,,,,,,2.4726722240448,,,,,,
9549,19.0,,,,,,,2.4084529876708984,,,,,,
9599,19.0,,,0.0,0.0,0.0,0.0,2.3910272121429443,9.978628440876491e-06,74.7452392578125,0.06645990163087845,62.27293014526367,12.405848503112793,2.2966744899749756
9600,,,9.97362076304853e-06,,,,,,,,,,,
9649,20.0,,,,,,,2.476081132888794,,,,,,
9699,20.0,,,,,,,2.412292003631592,,,,,,
9749,20.0,,,,,,,2.3190717697143555,,,,,,
9799,20.0,,,,,,,2.348367691040039,,,,,,
9849,20.0,,,,,,,2.2862067222595215,,,,,,
9899,20.0,,,,,,,2.352039098739624,,,,,,
9949,20.0,,,,,,,2.2797088623046875,,,,,,
9999,20.0,,,,,,,2.415161609649658,,,,,,
10049,20.0,,,,,,,2.193376302719116,,,,,,
10079,20.0,,,0.0,0.0,0.0,0.0,,9.97362076304853e-06,72.28622436523438,0.08861320465803146,58.440406799316406,13.757200241088867,2.2158162593841553
10080,,,9.968087397282943e-06,,,,,,,,,,,
10099,21.0,,,,,,,2.4083094596862793,,,,,,
10149,21.0,,,,,,,3.506110191345215,,,,,,
10199,21.0,,,,,,,2.226231575012207,,,,,,
10249,21.0,,,,,,,2.2344913482666016,,,,,,
10299,21.0,,,,,,,2.5221335887908936,,,,,,
10349,21.0,,,,,,,2.1875553131103516,,,,,,
10399,21.0,,,,,,,2.2339205741882324,,,,,,
10449,21.0,,,,,,,2.3477070331573486,,,,,,
10499,21.0,,,,,,,2.348637104034424,,,,,,
10549,21.0,,,,,,,2.2229766845703125,,,,,,
10559,21.0,,,0.0,0.0,0.0,0.0,,9.968087397282943e-06,65.30792999267578,0.1550731062889099,42.62295150756836,22.5299072265625,2.1337075233459473
10560,,,9.962030162569135e-06,,,,,,,,,,,
10599,22.0,,,,,,,2.203186511993408,,,,,,
10649,22.0,,,,,,,2.084717273712158,,,,,,
10699,22.0,,,,,,,2.2563211917877197,,,,,,
10749,22.0,,,,,,,2.0973265171051025,,,,,,
10799,22.0,,,,,,,2.3587846755981445,,,,,,
10849,22.0,,,,,,,2.244999408721924,,,,,,
10899,22.0,,,,,,,2.1336588859558105,,,,,,
10949,22.0,,,,,,,2.397495746612549,,,,,,
10999,22.0,,,,,,,2.0542097091674805,,,,,,
11039,22.0,,,0.0,0.0,0.0,0.0,,9.962030162569135e-06,63.09260177612305,0.3766061067581177,38.502437591552734,24.213558197021484,2.0348939895629883
11040,,,9.955449058907107e-06,,,,,,,,,,,
11049,23.0,,,,,,,2.243276596069336,,,,,,
11099,23.0,,,,,,,2.0954513549804688,,,,,,
11149,23.0,,,,,,,2.127645969390869,,,,,,
11199,23.0,,,,,,,2.209428310394287,,,,,,
11249,23.0,,,,,,,2.162229061126709,,,,,,
11299,23.0,,,,,,,2.09782075881958,,,,,,
11349,23.0,,,,,,,2.1854610443115234,,,,,,
11399,23.0,,,,,,,2.0306015014648438,,,,,,
11449,23.0,,,,,,,2.157923936843872,,,,,,
11499,23.0,,,,,,,2.1899783611297607,,,,,,
11519,23.0,,,0.0,0.0,0.0,0.0,,9.955449058907107e-06,58.41825485229492,0.4209127128124237,31.74567985534668,26.25166130065918,1.948866605758667
11520,,,9.948344995791558e-06,,,,,,,,,,,
11549,24.0,,,,,,,2.1203887462615967,,,,,,
11599,24.0,,,,,,,1.9705944061279297,,,,,,
11649,24.0,,,,,,,2.10115909576416,,,,,,
11699,24.0,,,,,,,2.178593397140503,,,,,,
11749,24.0,,,,,,,2.220323324203491,,,,,,
11799,24.0,,,,,,,2.083970546722412,,,,,,
11849,24.0,,,,,,,2.001230001449585,,,,,,
11899,24.0,,,,,,,2.0347909927368164,,,,,,
11949,24.0,,,,,,,2.107578754425049,,,,,,
11999,24.0,,,0.0,0.0,0.0,0.0,2.472367763519287,9.948344995791558e-06,57.332740783691406,0.6645990014076233,30.549402236938477,26.118741989135742,1.862712025642395
12000,,,9.940719792211894e-06,,,,,,,,,,,
12049,25.0,,,,,,,1.908354640007019,,,,,,
12099,25.0,,,,,,,2.1347031593322754,,,,,,
12149,25.0,,,,,,,2.172750473022461,,,,,,
12199,25.0,,,,,,,2.129549503326416,,,,,,
12249,25.0,,,,,,,1.7329610586166382,,,,,,
12299,25.0,,,,,,,1.9552552700042725,,,,,,
12349,25.0,,,,,,,2.0414857864379883,,,,,,
12399,25.0,,,,,,,1.973304033279419,,,,,,
12449,25.0,,,,,,,2.1081008911132812,,,,,,
12479,25.0,,,0.0,0.0,0.0,0.0,,9.940719792211894e-06,53.7439079284668,1.0190517902374268,24.213558197021484,28.51129913330078,1.7830162048339844
12480,,,9.932572538673412e-06,,,,,,,,,,,
12499,26.0,,,,,,,2.068889856338501,,,,,,
12549,26.0,,,,,,,2.173938035964966,,,,,,
12599,26.0,,,,,,,1.9809123277664185,,,,,,
12649,26.0,,,,,,,2.2403886318206787,,,,,,
12699,26.0,,,,,,,1.9514869451522827,,,,,,
12749,26.0,,,,,,,2.2682693004608154,,,,,,
12799,26.0,,,,,,,1.910075068473816,,,,,,
12849,26.0,,,,,,,2.0819432735443115,,,,,,
12899,26.0,,,,,,,2.0990233421325684,,,,,,
12949,26.0,,,,,,,1.8513405323028564,,,,,,
12959,26.0,,,0.0,0.0,0.0,0.0,,9.932572538673412e-06,52.215328216552734,0.7753655314445496,23.637571334838867,27.802392959594727,1.7021490335464478
12960,,,9.923905054165516e-06,,,,,,,,,,,
12999,27.0,,,,,,,2.1563663482666016,,,,,,
13049,27.0,,,,,,,1.9341096878051758,,,,,,
13099,27.0,,,,,,,1.7258965969085693,,,,,,
13149,27.0,,,,,,,2.006998062133789,,,,,,
13199,27.0,,,,,,,1.9963173866271973,,,,,,
13249,27.0,,,,,,,1.8098337650299072,,,,,,
13299,27.0,,,,,,,1.8214111328125,,,,,,
13349,27.0,,,,,,,1.9705896377563477,,,,,,
13399,27.0,,,,,,,1.8485772609710693,,,,,,
13439,27.0,,,0.0,0.0,0.0,0.0,,9.923905054165516e-06,50.221534729003906,1.1962782144546509,21.045635223388672,27.979618072509766,1.64892578125
13440,,,9.914718248182908e-06,,,,,,,,,,,
13449,28.0,,,,,,,1.9560518264770508,,,,,,
13499,28.0,,,,,,,1.5779508352279663,,,,,,
13549,28.0,,,,,,,1.7321622371673584,,,,,,
13599,28.0,,,,,,,1.8291207551956177,,,,,,
13649,28.0,,,,,,,1.7930511236190796,,,,,,
13699,28.0,,,,,,,1.9911603927612305,,,,,,
13749,28.0,,,,,,,1.9615027904510498,,,,,,
13799,28.0,,,,,,,1.7443253993988037,,,,,,
13849,28.0,,,,,,,1.8866636753082275,,,,,,
13899,28.0,,,,,,,1.7400373220443726,,,,,,
13919,28.0,,,0.0,0.0,0.0,0.0,,9.914718248182908e-06,46.654850006103516,1.5064244270324707,17.34603500366211,27.802392959594727,1.560729742050171
13920,,,9.90501393971499e-06,,,,,,,,,,,
13949,29.0,,,,,,,1.6932452917099,,,,,,
13999,29.0,,,,,,,1.7127768993377686,,,,,,
14049,29.0,,,,,,,1.751136302947998,,,,,,
14099,29.0,,,,,,,1.8894858360290527,,,,,,
14149,29.0,,,,,,,1.5072031021118164,,,,,,
14199,29.0,,,,,,,1.7370145320892334,,,,,,
14249,29.0,,,,,,,1.5781807899475098,,,,,,
14299,29.0,,,,,,,1.8343143463134766,,,,,,
14349,29.0,,,,,,,1.6914160251617432,,,,,,
14399,29.0,,,0.0,0.0,0.0,0.0,2.0835213661193848,9.90501393971499e-06,46.85423278808594,1.129818320274353,19.384138107299805,26.340274810791016,1.5059151649475098
14400,,,9.894792128761765e-06,,,,,,,,,,,
14449,30.0,,,,,,,1.822692632675171,,,,,,
14499,30.0,,,,,,,1.9141831398010254,,,,,,
14549,30.0,,,,,,,1.665903091430664,,,,,,
14599,30.0,,,,,,,1.6779968738555908,,,,,,
14649,30.0,,,,,,,1.5507335662841797,,,,,,
14699,30.0,,,,,,,1.6540601253509521,,,,,,
14749,30.0,,,,,,,1.5725525617599487,,,,,,
14799,30.0,,,,,,,1.5516822338104248,,,,,,
14849,30.0,,,,,,,1.688915491104126,,,,,,
14879,30.0,,,0.0,0.0,0.0,0.0,,9.894792128761765e-06,44.483829498291016,1.7279574871063232,15.59592342376709,27.15994644165039,1.4437223672866821
14880,,,9.884055543807335e-06,,,,,,,,,,,
14899,31.0,,,,,,,1.8702090978622437,,,,,,
14949,31.0,,,,,,,1.5469415187835693,,,,,,
14999,31.0,,,,,,,1.8085529804229736,,,,,,
15049,31.0,,,,,,,1.9123313426971436,,,,,,
15099,31.0,,,,,,,1.5981323719024658,,,,,,
15149,31.0,,,,,,,1.5820163488388062,,,,,,
15199,31.0,,,,,,,1.6744729280471802,,,,,,
15249,31.0,,,,,,,1.8972480297088623,,,,,,
15299,31.0,,,,,,,1.5598808526992798,,,,,,
15349,31.0,,,,,,,1.5635138750076294,,,,,,
15359,31.0,,,0.0,0.0,0.0,0.0,,9.884055543807335e-06,43.9521484375,2.281790018081665,13.912272453308105,27.758085250854492,1.4091049432754517
15360,,,9.872803275357e-06,,,,,,,,,,,
15399,32.0,,,,,,,1.602724313735962,,,,,,
15449,32.0,,,,,,,1.5716813802719116,,,,,,
15499,32.0,,,,,,,1.6144213676452637,,,,,,
15549,32.0,,,,,,,1.7108279466629028,,,,,,
15599,32.0,,,,,,,1.6238024234771729,,,,,,
15649,32.0,,,,,,,1.389843463897705,,,,,,
15699,32.0,,,,,,,1.6749845743179321,,,,,,
15749,32.0,,,,,,,1.5526623725891113,,,,,,
15799,32.0,,,,,,,1.5437241792678833,,,,,,
15839,32.0,,,0.0,0.0,0.0,0.0,,9.872803275357e-06,41.89189147949219,2.0159504413604736,14.576871871948242,25.299070358276367,1.350755214691162
15840,,,9.861038961389568e-06,,,,,,,,,,,
15849,33.0,,,,,,,1.5349222421646118,,,,,,
15899,33.0,,,,,,,1.7429938316345215,,,,,,
15949,33.0,,,,,,,1.7978615760803223,,,,,,
15999,33.0,,,,,,,1.7945866584777832,,,,,,
16049,33.0,,,,,,,1.6166212558746338,,,,,,
16099,33.0,,,,,,,1.4709978103637695,,,,,,
16149,33.0,,,,,,,1.7556054592132568,,,,,,
16199,33.0,,,,,,,1.563082218170166,,,,,,
16249,33.0,,,,,,,1.5005203485488892,,,,,,
16299,33.0,,,,,,,1.5073188543319702,,,,,,
16319,33.0,,,0.0,0.0,0.0,0.0,,9.861038961389568e-06,42.60079574584961,1.5507310628890991,17.213115692138672,23.836952209472656,1.3335394859313965
16320,,,9.848761692410335e-06,,,,,,,,,,,
16349,34.0,,,,,,,1.517911434173584,,,,,,
16399,34.0,,,,,,,1.734900951385498,,,,,,
16449,34.0,,,,,,,1.6145942211151123,,,,,,
16499,34.0,,,,,,,1.6813855171203613,,,,,,
16549,34.0,,,,,,,1.6474677324295044,,,,,,
16599,34.0,,,,,,,1.6318588256835938,,,,,,
16649,34.0,,,,,,,1.7226008176803589,,,,,,
16699,34.0,,,,,,,1.5765280723571777,,,,,,
16749,34.0,,,,,,,1.8173586130142212,,,,,,
16799,34.0,,,0.0,0.0,0.0,0.0,2.1801021099090576,9.848761692410335e-06,40.695613861083984,1.9494904279708862,13.048294067382812,25.69782829284668,1.2911028861999512
16800,,,9.83597510639811e-06,,,,,,,,,,,
16849,35.0,,,,,,,1.4087066650390625,,,,,,
16899,35.0,,,,,,,1.6305632591247559,,,,,,
16949,35.0,,,,,,,1.7608182430267334,,,,,,
16999,35.0,,,,,,,1.5259310007095337,,,,,,
17049,35.0,,,,,,,1.4215184450149536,,,,,,
17099,35.0,,,,,,,2.0625216960906982,,,,,,
17149,35.0,,,,,,,1.7933893203735352,,,,,,
17199,35.0,,,,,,,1.6786030530929565,,,,,,
17249,35.0,,,,,,,1.895064353942871,,,,,,
17279,35.0,,,0.0,0.0,0.0,0.0,,9.83597510639811e-06,39.034114837646484,2.9242358207702637,11.187417030334473,24.92246437072754,1.265857458114624
17280,,,9.822679203352891e-06,,,,,,,,,,,
17299,36.0,,,,,,,1.5618867874145508,,,,,,
17349,36.0,,,,,,,1.3339275121688843,,,,,,
17399,36.0,,,,,,,1.5099542140960693,,,,,,
17449,36.0,,,,,,,1.4952104091644287,,,,,,
17499,36.0,,,,,,,1.3414840698242188,,,,,,
17549,36.0,,,,,,,1.4437999725341797,,,,,,
17599,36.0,,,,,,,1.4885584115982056,,,,,,
17649,36.0,,,,,,,1.645745038986206,,,,,,
17699,36.0,,,,,,,1.3751499652862549,,,,,,
17749,36.0,,,,,,,1.391959547996521,,,,,,
17759,36.0,,,0.0,0.0,0.0,0.0,,9.822679203352891e-06,38.413822174072266,3.0128488540649414,9.658839225769043,25.742136001586914,1.2474404573440552
17760,,,9.808875802264083e-06,,,,,,,,,,,
17799,37.0,,,,,,,1.615013599395752,,,,,,
17849,37.0,,,,,,,1.4208683967590332,,,,,,
17899,37.0,,,,,,,1.4332342147827148,,,,,,
17949,37.0,,,,,,,1.5615922212600708,,,,,,
17999,37.0,,,,,,,1.404958963394165,,,,,,
18049,37.0,,,,,,,1.406134843826294,,,,,,
18099,37.0,,,,,,,1.4426074028015137,,,,,,
18149,37.0,,,,,,,1.4669489860534668,,,,,,
18199,37.0,,,,,,,1.4189153909683228,,,,,,
18239,37.0,,,0.0,0.0,0.0,0.0,,9.808875802264083e-06,37.41692352294922,2.237483501434326,11.918476104736328,23.26096534729004,1.2004605531692505
18240,,,9.79456672212109e-06,,,,,,,,,,,
18249,38.0,,,,,,,1.2079739570617676,,,,,,
18299,38.0,,,,,,,1.559448003768921,,,,,,
18349,38.0,,,,,,,1.3646043539047241,,,,,,
18399,38.0,,,,,,,1.3397307395935059,,,,,,
18449,38.0,,,,,,,1.2276710271835327,,,,,,
18499,38.0,,,,,,,1.7142246961593628,,,,,,
18549,38.0,,,,,,,1.2144781351089478,,,,,,
18599,38.0,,,,,,,1.4049749374389648,,,,,,
18649,38.0,,,,,,,1.6411380767822266,,,,,,
18699,38.0,,,,,,,1.771159291267395,,,,,,
18719,38.0,,,0.0,0.0,0.0,0.0,,9.79456672212109e-06,38.01506423950195,2.4590163230895996,12.1178560256958,23.43819236755371,1.1820900440216064
18720,,,9.779754691408016e-06,,,,,,,,,,,
18749,39.0,,,,,,,1.4101661443710327,,,,,,
18799,39.0,,,,,,,1.1712205410003662,,,,,,
18849,39.0,,,,,,,1.3472545146942139,,,,,,
18899,39.0,,,,,,,1.599485993385315,,,,,,
18949,39.0,,,,,,,1.2809748649597168,,,,,,
18999,39.0,,,,,,,1.2314263582229614,,,,,,
19049,39.0,,,,,,,1.6828151941299438,,,,,,
19099,39.0,,,,,,,1.4324322938919067,,,,,,
19149,39.0,,,,,,,1.302931785583496,,,,,,
19199,39.0,,,0.0,0.0,0.0,0.0,1.7127918004989624,9.779754691408016e-06,37.06247329711914,2.6362428665161133,10.212671279907227,24.213558197021484,1.1770671606063843
19200,,,9.764439710124861e-06,,,,,,,,,,,
19249,40.0,,,,,,,1.4624584913253784,,,,,,
19299,40.0,,,,,,,1.3539495468139648,,,,,,
19349,40.0,,,,,,,1.2320743799209595,,,,,,
19399,40.0,,,,,,,1.2580779790878296,,,,,,
19449,40.0,,,,,,,1.6101558208465576,,,,,,
19499,40.0,,,,,,,1.5067858695983887,,,,,,
19549,40.0,,,,,,,1.230802059173584,,,,,,
19599,40.0,,,,,,,1.3044178485870361,,,,,,
19649,40.0,,,,,,,1.3861620426177979,,,,,,
19679,40.0,,,0.0,0.0,0.0,0.0,,9.764439710124861e-06,37.12893295288086,2.4147098064422607,11.674789428710938,23.039432525634766,1.1414775848388672
19680,,,9.74862359726103e-06,,,,,,,,,,,
19699,41.0,,,,,,,1.3485347032546997,,,,,,
19749,41.0,,,,,,,1.7409701347351074,,,,,,
19799,41.0,,,,,,,1.681323766708374,,,,,,
19849,41.0,,,,,,,1.3787025213241577,,,,,,
19899,41.0,,,,,,,1.3444088697433472,,,,,,
19949,41.0,,,,,,,1.4462482929229736,,,,,,
19999,41.0,,,,,,,1.5364909172058105,,,,,,
20049,41.0,,,,,,,1.1584490537643433,,,,,,
20099,41.0,,,,,,,1.428963303565979,,,,,,
20149,41.0,,,,,,,1.3837625980377197,,,,,,
20159,41.0,,,0.0,0.0,0.0,0.0,,9.74862359726103e-06,34.824989318847656,2.658396005630493,9.725298881530762,22.441293716430664,1.1116656064987183
20160,,,9.73230999079533e-06,,,,,,,,,,,
20199,42.0,,,,,,,1.1323323249816895,,,,,,
20249,42.0,,,,,,,1.4435739517211914,,,,,,
20299,42.0,,,,,,,1.4056000709533691,,,,,,
20349,42.0,,,,,,,1.5672011375427246,,,,,,
20399,42.0,,,,,,,1.48240065574646,,,,,,
20449,42.0,,,,,,,1.181419849395752,,,,,,
20499,42.0,,,,,,,1.2325838804244995,,,,,,
20549,42.0,,,,,,,1.239497184753418,,,,,,
20599,42.0,,,,,,,1.415158987045288,,,,,,
20639,42.0,,,0.0,0.0,0.0,0.0,,9.73230999079533e-06,34.271156311035156,2.3925564289093018,9.968985557556152,21.90961456298828,1.085513710975647
20640,,,9.715498890727758e-06,,,,,,,,,,,
20649,43.0,,,,,,,1.4192030429840088,,,,,,
20699,43.0,,,,,,,1.176679253578186,,,,,,
20749,43.0,,,,,,,1.3962340354919434,,,,,,
20799,43.0,,,,,,,1.5305324792861938,,,,,,
20849,43.0,,,,,,,1.099743366241455,,,,,,
20899,43.0,,,,,,,1.4398365020751953,,,,,,
20949,43.0,,,,,,,1.499840497970581,,,,,,
20999,43.0,,,,,,,1.3092381954193115,,,,,,
21049,43.0,,,,,,,1.5478549003601074,,,,,,
21099,43.0,,,,,,,1.397361159324646,,,,,,
21119,43.0,,,0.0,0.0,0.0,0.0,,9.715498890727758e-06,34.60345458984375,2.0159504413604736,10.522817611694336,22.064687728881836,1.0769119262695312
21120,,,9.698193025542423e-06,,,,,,,,,,,
21149,44.0,,,,,,,1.2636312246322632,,,,,,
21199,44.0,,,,,,,1.2631880044937134,,,,,,
21249,44.0,,,,,,,1.4090256690979004,,,,,,
21299,44.0,,,,,,,1.4439096450805664,,,,,,
21349,44.0,,,,,,,1.5295692682266235,,,,,,
21399,44.0,,,,,,,1.3269922733306885,,,,,,
21449,44.0,,,,,,,1.3987634181976318,,,,,,
21499,44.0,,,,,,,1.2857110500335693,,,,,,
21549,44.0,,,,,,,1.1855084896087646,,,,,,
21599,44.0,,,0.0,0.0,0.0,0.0,1.4445884227752686,9.698193025542423e-06,33.76163101196289,2.5476295948028564,10.234825134277344,20.979175567626953,1.0622291564941406
21600,,,9.680395123723429e-06,,,,,,,,,,,
21649,45.0,,,,,,,1.2490041255950928,,,,,,
21699,45.0,,,,,,,1.1169432401657104,,,,,,
21749,45.0,,,,,,,1.7759315967559814,,,,,,
21799,45.0,,,,,,,1.469787836074829,,,,,,
21849,45.0,,,,,,,1.0964269638061523,,,,,,
21899,45.0,,,,,,,1.235910177230835,,,,,,
21949,45.0,,,,,,,1.5831085443496704,,,,,,
21999,45.0,,,,,,,1.161496639251709,,,,,,
22049,45.0,,,,,,,1.2871378660202026,,,,,,
22079,45.0,,,0.0,0.0,0.0,0.0,,9.680395123723429e-06,33.34071731567383,1.860877275466919,10.057598114013672,21.4222412109375,1.0330148935317993
22080,,,9.662106094765477e-06,,,,,,,,,,,
22099,46.0,,,,,,,1.2353992462158203,,,,,,
22149,46.0,,,,,,,1.4808337688446045,,,,,,
22199,46.0,,,,,,,1.4650168418884277,,,,,,
22249,46.0,,,,,,,1.343984603881836,,,,,,
22299,46.0,,,,,,,1.3038997650146484,,,,,,
22349,46.0,,,,,,,1.222069263458252,,,,,,
22399,46.0,,,,,,,1.3351941108703613,,,,,,
22449,46.0,,,,,,,1.2058404684066772,,,,,,
22499,46.0,,,,,,,1.2922279834747314,,,,,,
22549,46.0,,,,,,,1.0498590469360352,,,,,,
22559,46.0,,,0.0,0.0,0.0,0.0,,9.662106094765477e-06,32.16659164428711,2.6140894889831543,8.462560653686523,21.089942932128906,1.0437639951705933
22560,,,9.643329576647375e-06,,,,,,,,,,,
22599,47.0,,,,,,,1.1387414932250977,,,,,,
22649,47.0,,,,,,,1.1166361570358276,,,,,,
22699,47.0,,,,,,,1.1553328037261963,,,,,,
22749,47.0,,,,,,,1.3351770639419556,,,,,,
22799,47.0,,,,,,,1.2675731182098389,,,,,,
22849,47.0,,,,,,,1.0549373626708984,,,,,,
22899,47.0,,,,,,,1.0182387828826904,,,,,,
22949,47.0,,,,,,,1.4879777431488037,,,,,,
22999,47.0,,,,,,,1.3071705102920532,,,,,,
23039,47.0,,,0.0,0.0,0.0,0.0,,9.643329576647375e-06,32.78688430786133,2.9906957149505615,9.105006217956543,20.69118309020996,1.025654673576355
23040,,,9.624065569369122e-06,,,,,,,,,,,
23049,48.0,,,,,,,1.0902929306030273,,,,,,
23099,48.0,,,,,,,1.412541151046753,,,,,,
23149,48.0,,,,,,,1.2566068172454834,,,,,,
23199,48.0,,,,,,,1.0991439819335938,,,,,,
23249,48.0,,,,,,,1.3027803897857666,,,,,,
23299,48.0,,,,,,,1.3298051357269287,,,,,,
23349,48.0,,,,,,,1.2838168144226074,,,,,,
23399,48.0,,,,,,,1.1316947937011719,,,,,,
23449,48.0,,,,,,,1.1774523258209229,,,,,,
23499,48.0,,,,,,,1.0815144777297974,,,,,,
23519,48.0,,,0.0,0.0,0.0,0.0,,9.624065569369122e-06,31.546300888061523,2.769162654876709,8.706247329711914,20.070890426635742,1.0200064182281494
23520,,,9.604318620404229e-06,,,,,,,,,,,
23549,49.0,,,,,,,1.1700077056884766,,,,,,
23599,49.0,,,,,,,1.164882779121399,,,,,,
23649,49.0,,,,,,,1.1322264671325684,,,,,,
23699,49.0,,,,,,,1.4168753623962402,,,,,,
23749,49.0,,,,,,,1.1674988269805908,,,,,,
23799,49.0,,,,,,,1.1155259609222412,,,,,,
23849,49.0,,,,,,,1.0723954439163208,,,,,,
23899,49.0,,,,,,,1.4365334510803223,,,,,,
23949,49.0,,,,,,,1.160700798034668,,,,,,
23999,49.0,,,0.0,0.0,0.0,0.0,1.6389095783233643,9.604318620404229e-06,31.657066345214844,2.6140894889831543,9.060700416564941,19.982276916503906,0.9851224422454834
24000,,,9.584089639247395e-06,,,,,,,,,,,
24049,50.0,,,,,,,1.1124285459518433,,,,,,
24099,50.0,,,,,,,0.9892777800559998,,,,,,
24149,50.0,,,,,,,1.2326242923736572,,,,,,
24199,50.0,,,,,,,1.289863109588623,,,,,,
24249,50.0,,,,,,,1.3257334232330322,,,,,,
24299,50.0,,,,,,,1.536728858947754,,,,,,
24349,50.0,,,,,,,0.9735860824584961,,,,,,
24399,50.0,,,,,,,1.2080539464950562,,,,,,
24449,50.0,,,,,,,1.0836553573608398,,,,,,
24479,50.0,,,0.0,0.0,0.0,0.0,,9.584089639247395e-06,30.81524085998535,2.3925564289093018,8.839166641235352,19.58351707458496,0.988015353679657
24480,,,9.563381354382727e-06,,,,,,,,,,,
24499,51.0,,,,,,,1.129328966140747,,,,,,
24549,51.0,,,,,,,1.143197774887085,,,,,,
24599,51.0,,,,,,,1.1446057558059692,,,,,,
24649,51.0,,,,,,,1.138393759727478,,,,,,
24699,51.0,,,,,,,1.29094660282135,,,,,,
24749,51.0,,,,,,,1.1227532625198364,,,,,,
24799,51.0,,,,,,,1.4139883518218994,,,,,,
24849,51.0,,,,,,,1.17045259475708,,,,,,
24899,51.0,,,,,,,1.3991131782531738,,,,,,
24949,51.0,,,,,,,2.1486992835998535,,,,,,
24959,51.0,,,0.0,0.0,0.0,0.0,,9.563381354382727e-06,29.685422897338867,2.6140894889831543,8.152414321899414,18.91891860961914,0.9592825174331665
24960,,,9.542195584799629e-06,,,,,,,,,,,
24999,52.0,,,,,,,1.3082988262176514,,,,,,
25049,52.0,,,,,,,1.1937843561172485,,,,,,
25099,52.0,,,,,,,1.2026649713516235,,,,,,
25149,52.0,,,,,,,1.1309633255004883,,,,,,
25199,52.0,,,,,,,1.2870539426803589,,,,,,
25249,52.0,,,,,,,1.0786763429641724,,,,,,
25299,52.0,,,,,,,1.105992078781128,,,,,,
25349,52.0,,,,,,,1.1202747821807861,,,,,,
25399,52.0,,,,,,,1.185866355895996,,,,,,
25439,52.0,,,0.0,0.0,0.0,0.0,,9.542195584799629e-06,29.86264991760254,2.8799290657043457,7.709348678588867,19.273372650146484,0.941585898399353
25440,,,9.520535968476906e-06,,,,,,,,,,,
25449,53.0,,,,,,,1.175458312034607,,,,,,
25499,53.0,,,,,,,1.2097773551940918,,,,,,
25549,53.0,,,,,,,0.9968498349189758,,,,,,
25599,53.0,,,,,,,1.2367699146270752,,,,,,
25649,53.0,,,,,,,1.1513689756393433,,,,,,
25699,53.0,,,,,,,1.1920006275177002,,,,,,
25749,53.0,,,,,,,1.22859525680542,,,,,,
25799,53.0,,,,,,,1.3304989337921143,,,,,,
25849,53.0,,,,,,,1.070257306098938,,,,,,
25899,53.0,,,,,,,1.266953706741333,,,,,,
25919,53.0,,,0.0,0.0,0.0,0.0,,9.520535968476906e-06,30.350021362304688,2.857775926589966,7.864421844482422,19.627824783325195,0.9515724182128906
25920,,,9.498405233898666e-06,,,,,,,,,,,
25949,54.0,,,,,,,1.002653956413269,,,,,,
25999,54.0,,,,,,,1.0663907527923584,,,,,,
26049,54.0,,,,,,,1.2988288402557373,,,,,,
26099,54.0,,,,,,,1.238067626953125,,,,,,
26149,54.0,,,,,,,1.1985561847686768,,,,,,
26199,54.0,,,,,,,1.1928433179855347,,,,,,
26249,54.0,,,,,,,1.2091742753982544,,,,,,
26299,54.0,,,,,,,1.3897024393081665,,,,,,
26349,54.0,,,,,,,1.1755921840667725,,,,,,
26399,54.0,,,0.0,0.0,0.0,0.0,1.1115926504135132,9.498405233898666e-06,28.156845092773438,3.167922019958496,6.025697708129883,18.963226318359375,0.9221590161323547
26400,,,9.475804290559608e-06,,,,,,,,,,,
26449,55.0,,,,,,,1.3501273393630981,,,,,,
26499,55.0,,,,,,,1.270505428314209,,,,,,
26549,55.0,,,,,,,1.1285910606384277,,,,,,
26599,55.0,,,,,,,1.2616698741912842,,,,,,
26649,55.0,,,,,,,0.9893646836280823,,,,,,
26699,55.0,,,,,,,1.1447365283966064,,,,,,
26749,55.0,,,,,,,1.1404037475585938,,,,,,
26799,55.0,,,,,,,1.1093178987503052,,,,,,
26849,55.0,,,,,,,1.3170245885849,,,,,,
26879,55.0,,,0.0,0.0,0.0,0.0,,9.475804290559608e-06,27.802392959594727,2.9463889598846436,6.645990371704102,18.210012435913086,0.9057773351669312
26880,,,9.452736776438542e-06,,,,,,,,,,,
26899,56.0,,,,,,,1.2270337343215942,,,,,,
26949,56.0,,,,,,,0.8606551289558411,,,,,,
26999,56.0,,,,,,,1.1492900848388672,,,,,,
27049,56.0,,,,,,,1.213597297668457,,,,,,
27099,56.0,,,,,,,1.2356172800064087,,,,,,
27149,56.0,,,,,,,0.995759129524231,,,,,,
27199,56.0,,,,,,,1.123816967010498,,,,,,
27249,56.0,,,,,,,1.2373913526535034,,,,,,
27299,56.0,,,,,,,1.1098706722259521,,,,,,
27349,56.0,,,,,,,1.069217324256897,,,,,,
27359,56.0,,,0.0,0.0,0.0,0.0,,9.452736776438542e-06,27.735933303833008,2.835622549057007,6.623836994171143,18.276473999023438,0.8897407650947571
27360,,,9.429206329514273e-06,,,,,,,,,,,
27399,57.0,,,,,,,1.2409653663635254,,,,,,
27449,57.0,,,,,,,1.170107364654541,,,,,,
27499,57.0,,,,,,,1.3044451475143433,,,,,,
27549,57.0,,,,,,,1.0107611417770386,,,,,,
27599,57.0,,,,,,,1.0190542936325073,,,,,,
27649,57.0,,,,,,,1.1349769830703735,,,,,,
27699,57.0,,,,,,,1.388139247894287,,,,,,
27749,57.0,,,,,,,1.0903630256652832,,,,,,
27799,57.0,,,,,,,1.034177303314209,,,,,,
27839,57.0,,,0.0,0.0,0.0,0.0,,9.429206329514273e-06,27.11564064025879,3.300841808319092,6.047851085662842,17.76694679260254,0.8858382105827332
27840,,,9.405213859281503e-06,,,,,,,,,,,
27849,58.0,,,,,,,1.0366365909576416,,,,,,
27899,58.0,,,,,,,1.2254371643066406,,,,,,
27949,58.0,,,,,,,1.2117528915405273,,,,,,
27999,58.0,,,,,,,1.1826941967010498,,,,,,
28049,58.0,,,,,,,0.981781542301178,,,,,,
28099,58.0,,,,,,,1.2835991382598877,,,,,,
28149,58.0,,,,,,,1.288145899772644,,,,,,
28199,58.0,,,,,,,1.078273057937622,,,,,,
28249,58.0,,,,,,,1.2339744567871094,,,,,,
28299,58.0,,,,,,,1.2216637134552002,,,,,,
28319,58.0,,,0.0,0.0,0.0,0.0,,9.405213859281503e-06,27.935312271118164,2.9242358207702637,6.845369815826416,18.165706634521484,0.8935444355010986
28320,,,9.38076300371904e-06,,,,,,,,,,,
28349,59.0,,,,,,,1.1429014205932617,,,,,,
28399,59.0,,,,,,,1.1440508365631104,,,,,,
28449,59.0,,,,,,,1.2529518604278564,,,,,,
28499,59.0,,,,,,,0.8865474462509155,,,,,,
28549,59.0,,,,,,,1.0969903469085693,,,,,,
28599,59.0,,,,,,,1.432305097579956,,,,,,
28649,59.0,,,,,,,0.9759145975112915,,,,,,
28699,59.0,,,,,,,0.9484587907791138,,,,,,
28749,59.0,,,,,,,1.0658262968063354,,,,,,
28799,59.0,,,0.0,0.0,0.0,0.0,1.5575435161590576,9.38076300371904e-06,27.4257869720459,3.0571556091308594,6.2029242515563965,18.165706634521484,0.8769322037696838
28800,,,9.35585740080569e-06,,,,,,,,,,,
28849,60.0,,,,,,,1.110866665840149,,,,,,
28899,60.0,,,,,,,1.1554923057556152,,,,,,
28949,60.0,,,,,,,0.8599879741668701,,,,,,
28999,60.0,,,,,,,1.1202013492584229,,,,,,
29049,60.0,,,,,,,1.0789486169815063,,,,,,
29099,60.0,,,,,,,0.7884445190429688,,,,,,
29149,60.0,,,,,,,1.0487456321716309,,,,,,
29199,60.0,,,,,,,1.1181821823120117,,,,,,
29249,60.0,,,,,,,1.0646557807922363,,,,,,
29279,60.0,,,0.0,0.0,0.0,0.0,,9.35585740080569e-06,25.852901458740234,2.857775926589966,6.446610450744629,16.54851531982422,0.8518825173377991
29280,,,9.330498869530857e-06,,,,,,,,,,,
29299,61.0,,,,,,,1.1009312868118286,,,,,,
29349,61.0,,,,,,,1.2991926670074463,,,,,,
29399,61.0,,,,,,,1.1492295265197754,,,,,,
29449,61.0,,,,,,,1.0901011228561401,,,,,,
29499,61.0,,,,,,,1.0683746337890625,,,,,,
29549,61.0,,,,,,,1.0960876941680908,,,,,,
29599,61.0,,,,,,,1.0412039756774902,,,,,,
29649,61.0,,,,,,,1.198906421661377,,,,,,
29699,61.0,,,,,,,1.2342183589935303,,,,,,
29749,61.0,,,,,,,1.1600213050842285,,,,,,
29759,61.0,,,0.0,0.0,0.0,0.0,,9.330498869530857e-06,27.381479263305664,2.857775926589966,7.377048969268799,17.14665412902832,0.8616206645965576
29760,,,9.304691047873348e-06,,,,,,,,,,,
29799,62.0,,,,,,,1.2269484996795654,,,,,,
29849,62.0,,,,,,,1.1627473831176758,,,,,,
29899,62.0,,,,,,,1.0556252002716064,,,,,,
29949,62.0,,,,,,,1.21319580078125,,,,,,
29999,62.0,,,,,,,0.9291844367980957,,,,,,
30049,62.0,,,,,,,0.8924838304519653,,,,,,
30099,62.0,,,,,,,1.0097532272338867,,,,,,
30149,62.0,,,,,,,1.0239534378051758,,,,,,
30199,62.0,,,,,,,1.2398066520690918,,,,,,
30239,62.0,,,0.0,0.0,0.0,0.0,,9.304691047873348e-06,26.229507446289062,2.348249912261963,7.332742691040039,16.54851531982422,0.8378198742866516
30240,,,9.278436664317269e-06,,,,,,,,,,,
30249,63.0,,,,,,,1.2485222816467285,,,,,,
30299,63.0,,,,,,,0.9367674589157104,,,,,,
30349,63.0,,,,,,,0.9616281986236572,,,,,,
30399,63.0,,,,,,,0.9295428991317749,,,,,,
30449,63.0,,,,,,,1.1887073516845703,,,,,,
30499,63.0,,,,,,,1.1032731533050537,,,,,,
30549,63.0,,,,,,,0.8273455500602722,,,,,,
30599,63.0,,,,,,,1.0137908458709717,,,,,,
30649,63.0,,,,,,,0.9961322546005249,,,,,,
30699,63.0,,,,,,,1.0792675018310547,,,,,,
30719,63.0,,,0.0,0.0,0.0,0.0,,9.278436664317269e-06,26.030128479003906,2.724855899810791,6.446610450744629,16.858661651611328,0.8340418934822083
30720,,,9.251738447346725e-06,,,,,,,,,,,
30749,64.0,,,,,,,1.1974070072174072,,,,,,
30799,64.0,,,,,,,0.9278033375740051,,,,,,
30849,64.0,,,,,,,0.9125927686691284,,,,,,
30899,64.0,,,,,,,0.9121987223625183,,,,,,
30949,64.0,,,,,,,0.9704827070236206,,,,,,
30999,64.0,,,,,,,1.0937042236328125,,,,,,
31049,64.0,,,,,,,1.0973708629608154,,,,,,
31099,64.0,,,,,,,1.0830988883972168,,,,,,
31149,64.0,,,,,,,0.8689765930175781,,,,,,
31199,64.0,,,0.0,0.0,0.0,0.0,0.9641196727752686,9.251738447346725e-06,25.121843338012695,2.769162654876709,6.535223960876465,15.81745719909668,0.8149343729019165
31200,,,9.224600944435224e-06,,,,,,,,,,,
31249,65.0,,,,,,,1.0306509733200073,,,,,,
31299,65.0,,,,,,,1.1278917789459229,,,,,,
31349,65.0,,,,,,,1.0818676948547363,,,,,,
31399,65.0,,,,,,,1.0631545782089233,,,,,,
31449,65.0,,,,,,,1.086751937866211,,,,,,
31499,65.0,,,,,,,0.9503106474876404,,,,,,
31549,65.0,,,,,,,1.1271898746490479,,,,,,
31599,65.0,,,,,,,1.0960484743118286,,,,,,
31649,65.0,,,,,,,0.9949361085891724,,,,,,
31679,65.0,,,0.0,0.0,0.0,0.0,,9.224600944435224e-06,25.52060317993164,3.0571556091308594,5.582631587982178,16.880815505981445,0.8255017399787903
31680,,,9.197025065077469e-06,,,,,,,,,,,
31699,66.0,,,,,,,1.0455700159072876,,,,,,
31749,66.0,,,,,,,1.0305240154266357,,,,,,
31799,66.0,,,,,,,1.287832260131836,,,,,,
31849,66.0,,,,,,,0.9869807958602905,,,,,,
31899,66.0,,,,,,,0.9243078231811523,,,,,,
31949,66.0,,,,,,,1.1628553867340088,,,,,,
31999,66.0,,,,,,,1.362160086631775,,,,,,
32049,66.0,,,,,,,0.9147905111312866,,,,,,
32099,66.0,,,,,,,1.0686924457550049,,,,,,
32149,66.0,,,,,,,1.280954122543335,,,,,,
32159,66.0,,,0.0,0.0,0.0,0.0,,9.197025065077469e-06,25.69782829284668,2.5033230781555176,5.959238052368164,17.235267639160156,0.8137512803077698
32160,,,9.16901626624167e-06,,,,,,,,,,,
32199,67.0,,,,,,,1.007755994796753,,,,,,
32249,67.0,,,,,,,0.8145850300788879,,,,,,
32299,67.0,,,,,,,0.932831883430481,,,,,,
32349,67.0,,,,,,,1.0912612676620483,,,,,,
32399,67.0,,,,,,,1.0102957487106323,,,,,,
32449,67.0,,,,,,,0.840575098991394,,,,,,
32499,67.0,,,,,,,1.1592116355895996,,,,,,
32549,67.0,,,,,,,1.1810507774353027,,,,,,
32599,67.0,,,,,,,1.0350818634033203,,,,,,
32639,67.0,,,0.0,0.0,0.0,0.0,,9.16901626624167e-06,24.96677017211914,2.5254762172698975,6.38015079498291,16.06114387512207,0.8047068119049072
32640,,,9.14057636691723e-06,,,,,,,,,,,
32649,68.0,,,,,,,1.096665859222412,,,,,,
32699,68.0,,,,,,,1.0172710418701172,,,,,,
32749,68.0,,,,,,,0.6537688970565796,,,,,,
32799,68.0,,,,,,,1.104578971862793,,,,,,
32849,68.0,,,,,,,1.2372186183929443,,,,,,
32899,68.0,,,,,,,1.2651641368865967,,,,,,
32949,68.0,,,,,,,1.0054242610931396,,,,,,
32999,68.0,,,,,,,1.0487849712371826,,,,,,
33049,68.0,,,,,,,1.137323021888733,,,,,,
33099,68.0,,,,,,,1.0753538608551025,,,,,,
33119,68.0,,,0.0,0.0,0.0,0.0,,9.14057636691723e-06,24.545856475830078,2.9685423374176025,5.028799057006836,16.54851531982422,0.8051134347915649
33120,,,9.11170991457766e-06,,,,,,,,,,,
33149,69.0,,,,,,,0.7419943809509277,,,,,,
33199,69.0,,,,,,,1.110119342803955,,,,,,
33249,69.0,,,,,,,1.0224344730377197,,,,,,
33299,69.0,,,,,,,0.9795022010803223,,,,,,
33349,69.0,,,,,,,1.4313504695892334,,,,,,
33399,69.0,,,,,,,1.1687977313995361,,,,,,
33449,69.0,,,,,,,0.7710545063018799,,,,,,
33499,69.0,,,,,,,0.8582435846328735,,,,,,
33549,69.0,,,,,,,0.787353515625,,,,,,
33599,69.0,,,0.0,0.0,0.0,0.0,0.9534861445426941,9.11170991457766e-06,24.41293716430664,2.3925564289093018,6.357997417449951,15.662384033203125,0.7880910038948059
33600,,,9.08241872821236e-06,,,,,,,,,,,
33649,70.0,,,,,,,1.0495045185089111,,,,,,
33699,70.0,,,,,,,1.2904317378997803,,,,,,
33749,70.0,,,,,,,1.0782766342163086,,,,,,
33799,70.0,,,,,,,0.8983018398284912,,,,,,
33849,70.0,,,,,,,0.9661635756492615,,,,,,
33899,70.0,,,,,,,0.8730179071426392,,,,,,
33949,70.0,,,,,,,1.0644264221191406,,,,,,
33999,70.0,,,,,,,0.942261815071106,,,,,,
34049,70.0,,,,,,,0.8405780792236328,,,,,,
34079,70.0,,,0.0,0.0,0.0,0.0,,9.08241872821236e-06,24.30217170715332,2.6362428665161133,5.228178977966309,16.4377498626709,0.7853187322616577
34080,,,9.052707355294842e-06,,,,,,,,,,,
34099,71.0,,,,,,,1.1481574773788452,,,,,,
34149,71.0,,,,,,,0.8431140184402466,,,,,,
34199,71.0,,,,,,,0.7529774308204651,,,,,,
34249,71.0,,,,,,,0.9014925956726074,,,,,,
34299,71.0,,,,,,,0.8909299373626709,,,,,,
34349,71.0,,,,,,,1.0653953552246094,,,,,,
34399,71.0,,,,,,,0.9483615159988403,,,,,,
34449,71.0,,,,,,,1.0671217441558838,,,,,,
34499,71.0,,,,,,,1.0776561498641968,,,,,,
34549,71.0,,,,,,,0.9862927198410034,,,,,,
34559,71.0,,,0.0,0.0,0.0,0.0,,9.052707355294842e-06,23.969871520996094,2.4368631839752197,4.940186023712158,16.592823028564453,0.7787014842033386
34560,,,9.022579433803912e-06,,,,,,,,,,,
34599,72.0,,,,,,,0.9205766916275024,,,,,,
34649,72.0,,,,,,,0.8358124494552612,,,,,,
34699,72.0,,,,,,,0.8972941040992737,,,,,,
34749,72.0,,,,,,,0.8569242358207703,,,,,,
34799,72.0,,,,,,,0.9047443270683289,,,,,,
34849,72.0,,,,,,,0.822028398513794,,,,,,
34899,72.0,,,,,,,1.01478910446167,,,,,,
34949,72.0,,,,,,,0.9864205121994019,,,,,,
34999,72.0,,,,,,,0.8420193195343018,,,,,,
35039,72.0,,,0.0,0.0,0.0,0.0,,9.022579433803912e-06,23.371732711791992,2.769162654876709,4.962339401245117,15.640230178833008,0.7678040862083435
35040,,,8.992037692223676e-06,,,,,,,,,,,
35049,73.0,,,,,,,0.9335179328918457,,,,,,
35099,73.0,,,,,,,1.1020069122314453,,,,,,
35149,73.0,,,,,,,0.8591455817222595,,,,,,
35199,73.0,,,,,,,0.8792251348495483,,,,,,
35249,73.0,,,,,,,0.9098283052444458,,,,,,
35299,73.0,,,,,,,1.0085872411727905,,,,,,
35349,73.0,,,,,,,1.1271723508834839,,,,,,
35399,73.0,,,,,,,0.9026467800140381,,,,,,
35449,73.0,,,,,,,0.9275420308113098,,,,,,
35499,73.0,,,,,,,0.915666937828064,,,,,,
35519,73.0,,,0.0,0.0,0.0,0.0,,8.992037692223676e-06,23.061586380004883,2.813469171524048,4.7851128578186035,15.463004112243652,0.7584697008132935
35520,,,8.961086678027641e-06,,,,,,,,,,,
35549,74.0,,,,,,,1.0780761241912842,,,,,,
35599,74.0,,,,,,,1.2182906866073608,,,,,,
35649,74.0,,,,,,,1.046656847000122,,,,,,
35699,74.0,,,,,,,0.9747556447982788,,,,,,
35749,74.0,,,,,,,0.8266999125480652,,,,,,
35799,74.0,,,,,,,0.9499251842498779,,,,,,
35849,74.0,,,,,,,1.0174427032470703,,,,,,
35899,74.0,,,,,,,0.9255443215370178,,,,,,
35949,74.0,,,,,,,0.8342267274856567,,,,,,
35999,74.0,,,0.0,0.0,0.0,0.0,0.8624336123466492,8.961086678027641e-06,23.327425003051758,3.0128488540649414,4.519273281097412,15.795303344726562,0.7623854875564575
36000,,,8.929729119699914e-06,,,,,,,,,,,
36049,75.0,,,,,,,0.8638899922370911,,,,,,
36099,75.0,,,,,,,1.0786277055740356,,,,,,
36149,75.0,,,,,,,1.0542088747024536,,,,,,
36199,75.0,,,,,,,0.7255793809890747,,,,,,
36249,75.0,,,,,,,0.941258430480957,,,,,,
36299,75.0,,,,,,,1.0342366695404053,,,,,,
36349,75.0,,,,,,,0.9061785340309143,,,,,,
36399,75.0,,,,,,,0.8681331276893616,,,,,,
36449,75.0,,,,,,,1.1725475788116455,,,,,,
36479,75.0,,,0.0,0.0,0.0,0.0,,8.929729119699914e-06,22.928667068481445,2.1488702297210693,5.4940185546875,15.285778045654297,0.747383713722229
36480,,,8.897969564714003e-06,,,,,,,,,,,
36499,76.0,,,,,,,1.039320945739746,,,,,,
36549,76.0,,,,,,,0.995176374912262,,,,,,
36599,76.0,,,,,,,1.0676883459091187,,,,,,
36649,76.0,,,,,,,1.1705855131149292,,,,,,
36699,76.0,,,,,,,0.8162040114402771,,,,,,
36749,76.0,,,,,,,0.9289658665657043,,,,,,
36799,76.0,,,,,,,0.8518358469009399,,,,,,
36849,76.0,,,,,,,0.7930535078048706,,,,,,
36899,76.0,,,,,,,1.1223020553588867,,,,,,
36949,76.0,,,,,,,0.8888716697692871,,,,,,
36959,76.0,,,0.0,0.0,0.0,0.0,,8.897969564714003e-06,23.593265533447266,2.370403289794922,6.557376861572266,14.665485382080078,0.7595194578170776
36960,,,8.865810741554014e-06,,,,,,,,,,,
36999,77.0,,,,,,,0.7722215056419373,,,,,,
37049,77.0,,,,,,,0.7848029136657715,,,,,,
37099,77.0,,,,,,,0.9461246728897095,,,,,,
37149,77.0,,,,,,,0.9957032203674316,,,,,,
37199,77.0,,,,,,,0.9318348169326782,,,,,,
37249,77.0,,,,,,,0.992785632610321,,,,,,
37299,77.0,,,,,,,1.0200581550598145,,,,,,
37349,77.0,,,,,,,0.8765487670898438,,,,,,
37399,77.0,,,,,,,0.762059211730957,,,,,,
37439,77.0,,,0.0,0.0,0.0,0.0,,8.865810741554014e-06,22.77359390258789,2.724855899810791,5.117412567138672,14.93132495880127,0.7415257096290588
37440,,,8.833257197693456e-06,,,,,,,,,,,
37449,78.0,,,,,,,1.0720734596252441,,,,,,
37499,78.0,,,,,,,0.8888534903526306,,,,,,
37549,78.0,,,,,,,0.9150140285491943,,,,,,
37599,78.0,,,,,,,1.0195236206054688,,,,,,
37649,78.0,,,,,,,0.6686733365058899,,,,,,
37699,78.0,,,,,,,1.1157188415527344,,,,,,
37749,78.0,,,,,,,0.986626148223877,,,,,,
37799,78.0,,,,,,,0.9812598824501038,,,,,,
37849,78.0,,,,,,,0.9204484224319458,,,,,,
37899,78.0,,,,,,,1.025012731552124,,,,,,
37919,78.0,,,0.0,0.0,0.0,0.0,,8.833257197693456e-06,22.684980392456055,3.256535291671753,4.430660247802734,14.997784614562988,0.7450377941131592
37920,,,8.800311661616433e-06,,,,,,,,,,,
37949,79.0,,,,,,,0.9279286861419678,,,,,,
37999,79.0,,,,,,,0.7640499472618103,,,,,,
38049,79.0,,,,,,,0.6900641918182373,,,,,,
38099,79.0,,,,,,,0.8699601888656616,,,,,,
38149,79.0,,,,,,,1.0794167518615723,,,,,,
38199,79.0,,,,,,,0.8492000102996826,,,,,,
38249,79.0,,,,,,,0.9406741857528687,,,,,,
38299,79.0,,,,,,,0.8681836128234863,,,,,,
38349,79.0,,,,,,,0.8511234521865845,,,,,,
38399,79.0,,,0.0,0.0,0.0,0.0,1.2069904804229736,8.800311661616433e-06,22.5299072265625,2.5697829723358154,5.272485733032227,14.687638282775879,0.7272833585739136
38400,,,8.766979590291157e-06,,,,,,,,,,,
38449,80.0,,,,,,,0.69158935546875,,,,,,
38499,80.0,,,,,,,0.9679272770881653,,,,,,
38549,80.0,,,,,,,0.848297119140625,,,,,,
38599,80.0,,,,,,,0.7690132856369019,,,,,,
38649,80.0,,,,,,,0.9000922441482544,,,,,,
38699,80.0,,,,,,,1.0215873718261719,,,,,,
38749,80.0,,,,,,,0.9095566272735596,,,,,,
38799,80.0,,,,,,,0.7395415306091309,,,,,,
38849,80.0,,,,,,,0.8288694620132446,,,,,,
38879,80.0,,,0.0,0.0,0.0,0.0,,8.766979590291157e-06,22.33052635192871,2.6140894889831543,5.117412567138672,14.59902572631836,0.7246534824371338
38880,,,8.733263712201733e-06,,,,,,,,,,,
38899,81.0,,,,,,,0.8815961480140686,,,,,,
38949,81.0,,,,,,,0.8584526777267456,,,,,,
38999,81.0,,,,,,,0.8214461803436279,,,,,,
39049,81.0,,,,,,,1.0533307790756226,,,,,,
39099,81.0,,,,,,,1.017468810081482,,,,,,
39149,81.0,,,,,,,1.0423989295959473,,,,,,
39199,81.0,,,,,,,0.7976874113082886,,,,,,
39249,81.0,,,,,,,0.7328506708145142,,,,,,
39299,81.0,,,,,,,0.9275426864624023,,,,,,
39349,81.0,,,,,,,0.6222752332687378,,,,,,
39359,81.0,,,0.0,0.0,0.0,0.0,,8.733263712201733e-06,23.105892181396484,1.9494904279708862,6.645990371704102,14.510412216186523,0.7355310320854187
39360,,,8.699169484316371e-06,,,,,,,,,,,
39399,82.0,,,,,,,0.9531527161598206,,,,,,
39449,82.0,,,,,,,1.003614902496338,,,,,,
39499,82.0,,,,,,,0.9110021591186523,,,,,,
39549,82.0,,,,,,,0.9148625135421753,,,,,,
39599,82.0,,,,,,,0.8485661745071411,,,,,,
39649,82.0,,,,,,,0.9018468260765076,,,,,,
39699,82.0,,,,,,,0.9757625460624695,,,,,,
39749,82.0,,,,,,,1.0926806926727295,,,,,,
39799,82.0,,,,,,,1.1753336191177368,,,,,,
39839,82.0,,,0.0,0.0,0.0,0.0,,8.699169484316371e-06,21.821001052856445,2.215330123901367,4.984492778778076,14.62117862701416,0.7082517147064209
39840,,,8.664698725624476e-06,,,,,,,,,,,
39849,83.0,,,,,,,0.985755205154419,,,,,,
39899,83.0,,,,,,,0.9734939336776733,,,,,,
39949,83.0,,,,,,,0.9042694568634033,,,,,,
39999,83.0,,,,,,,0.8719720840454102,,,,,,
40049,83.0,,,,,,,0.7109789848327637,,,,,,
40099,83.0,,,,,,,0.8913882374763489,,,,,,
40149,83.0,,,,,,,0.9526829123497009,,,,,,
40199,83.0,,,,,,,0.8052780628204346,,,,,,
40249,83.0,,,,,,,0.8654778003692627,,,,,,
40299,83.0,,,,,,,1.1428461074829102,,,,,,
40319,83.0,,,0.0,0.0,0.0,0.0,,8.664698725624476e-06,22.374834060668945,2.370403289794922,5.693398475646973,14.31103229522705,0.7102264761924744
40320,,,8.629856893094257e-06,,,,,,,,,,,
40349,84.0,,,,,,,1.1317553520202637,,,,,,
40399,84.0,,,,,,,0.8141088485717773,,,,,,
40449,84.0,,,,,,,0.8262566328048706,,,,,,
40499,84.0,,,,,,,0.8270916938781738,,,,,,
40549,84.0,,,,,,,1.0180084705352783,,,,,,
40599,84.0,,,,,,,0.9930604696273804,,,,,,
40649,84.0,,,,,,,0.8399040102958679,,,,,,
40699,84.0,,,,,,,0.7835702300071716,,,,,,
40749,84.0,,,,,,,0.7790265083312988,,,,,,
40799,84.0,,,0.0,0.0,0.0,0.0,0.8805052638053894,8.629856893094257e-06,22.153301239013672,2.702702760696411,4.630039691925049,14.820558547973633,0.7230196595191956
40800,,,8.594647624704521e-06,,,,,,,,,,,
40849,85.0,,,,,,,1.0903193950653076,,,,,,
40899,85.0,,,,,,,1.1634974479675293,,,,,,
40949,85.0,,,,,,,1.0396394729614258,,,,,,
40999,85.0,,,,,,,0.8890877962112427,,,,,,
41049,85.0,,,,,,,0.8937385082244873,,,,,,
41099,85.0,,,,,,,0.8541622161865234,,,,,,
41149,85.0,,,,,,,0.9064669609069824,,,,,,
41199,85.0,,,,,,,0.9829404354095459,,,,,,
41249,85.0,,,,,,,0.8043442964553833,,,,,,
41279,85.0,,,0.0,0.0,0.0,0.0,,8.594647624704521e-06,21.533008575439453,2.5254762172698975,4.386353492736816,14.62117862701416,0.7103468179702759
41280,,,8.559075467928778e-06,,,,,,,,,,,
41299,86.0,,,,,,,0.9496816396713257,,,,,,
41349,86.0,,,,,,,1.036960482597351,,,,,,
41399,86.0,,,,,,,0.6478111743927002,,,,,,
41449,86.0,,,,,,,0.8228007555007935,,,,,,
41499,86.0,,,,,,,1.0320663452148438,,,,,,
41549,86.0,,,,,,,0.9808436036109924,,,,,,
41599,86.0,,,,,,,0.8522627353668213,,,,,,
41649,86.0,,,,,,,0.9074622392654419,,,,,,
41699,86.0,,,,,,,0.927822470664978,,,,,,
41749,86.0,,,,,,,0.7653448581695557,,,,,,
41759,86.0,,,0.0,0.0,0.0,0.0,,8.559075467928778e-06,22.131147384643555,2.4147098064422607,5.427558898925781,14.28887939453125,0.7017357349395752
41760,,,8.523144060745835e-06,,,,,,,,,,,
41799,87.0,,,,,,,1.043218970298767,,,,,,
41849,87.0,,,,,,,0.958846926689148,,,,,,
41899,87.0,,,,,,,0.780475378036499,,,,,,
41949,87.0,,,,,,,1.1452158689498901,,,,,,
41999,87.0,,,,,,,0.9432373046875,,,,,,
42049,87.0,,,,,,,0.9557718634605408,,,,,,
42099,87.0,,,,,,,0.8241288661956787,,,,,,
42149,87.0,,,,,,,1.0337245464324951,,,,,,
42199,87.0,,,,,,,0.9930427074432373,,,,,,
42239,87.0,,,0.0,0.0,0.0,0.0,,8.523144060745835e-06,22.153301239013672,2.791315793991089,4.674346446990967,14.687638282775879,0.7106784582138062
42240,,,8.4868579506292e-06,,,,,,,,,,,
42249,88.0,,,,,,,1.0749189853668213,,,,,,
42299,88.0,,,,,,,1.2778667211532593,,,,,,
42349,88.0,,,,,,,0.9649004936218262,,,,,,
42399,88.0,,,,,,,0.9955131411552429,,,,,,
42449,88.0,,,,,,,1.2817683219909668,,,,,,
42499,88.0,,,,,,,0.8021578788757324,,,,,,
42549,88.0,,,,,,,1.1546273231506348,,,,,,
42599,88.0,,,,,,,0.8203752040863037,,,,,,
42649,88.0,,,,,,,0.889338493347168,,,,,,
42699,88.0,,,,,,,0.7752692699432373,,,,,,
42719,88.0,,,0.0,0.0,0.0,0.0,,8.4868579506292e-06,21.045635223388672,2.193176746368408,5.139565944671631,13.71289348602295,0.6942440271377563
42720,,,8.450220775557682e-06,,,,,,,,,,,
42749,89.0,,,,,,,0.8650628328323364,,,,,,
42799,89.0,,,,,,,0.852108895778656,,,,,,
42849,89.0,,,,,,,0.7727712392807007,,,,,,
42899,89.0,,,,,,,1.125083327293396,,,,,,
42949,89.0,,,,,,,1.0321555137634277,,,,,,
42999,89.0,,,,,,,0.7750469446182251,,,,,,
43049,89.0,,,,,,,0.7337415218353271,,,,,,
43099,89.0,,,,,,,0.682100772857666,,,,,,
43149,89.0,,,,,,,0.8702359199523926,,,,,,
43199,89.0,,,0.0,0.0,0.0,0.0,1.078599452972412,8.450220775557682e-06,20.580415725708008,2.303943395614624,4.7629594802856445,13.513513565063477,0.6777673363685608
43200,,,8.41323799249949e-06,,,,,,,,,,,
43249,90.0,,,,,,,0.7978413105010986,,,,,,
43299,90.0,,,,,,,0.954370379447937,,,,,,
43349,90.0,,,,,,,0.9872984886169434,,,,,,
43399,90.0,,,,,,,0.9766553640365601,,,,,,
43449,90.0,,,,,,,0.9384989738464355,,,,,,
43499,90.0,,,,,,,0.9789616465568542,,,,,,
43549,90.0,,,,,,,0.8820034861564636,,,,,,
43599,90.0,,,,,,,0.8255094289779663,,,,,,
43649,90.0,,,,,,,0.8162907361984253,,,,,,
43679,90.0,,,0.0,0.0,0.0,0.0,,8.41323799249949e-06,20.93486976623535,2.326096534729004,4.8072662353515625,13.801506042480469,0.6842853426933289
43680,,,8.37591323943343e-06,,,,,,,,,,,
43699,91.0,,,,,,,0.8830739855766296,,,,,,
43749,91.0,,,,,,,0.6528123617172241,,,,,,
43799,91.0,,,,,,,1.1378004550933838,,,,,,
43849,91.0,,,,,,,0.852981686592102,,,,,,
43899,91.0,,,,,,,0.7802061438560486,,,,,,
43949,91.0,,,,,,,0.9619823694229126,,,,,,
43999,91.0,,,,,,,0.6190173625946045,,,,,,
44049,91.0,,,,,,,0.9584206938743591,,,,,,
44099,91.0,,,,,,,1.1027263402938843,,,,,,
44149,91.0,,,,,,,0.7877376079559326,,,,,,
44159,91.0,,,0.0,0.0,0.0,0.0,,8.37591323943343e-06,21.089942932128906,2.791315793991089,4.56358003616333,13.73504638671875,0.6926854848861694
44160,,,8.338251063833013e-06,,,,,,,,,,,
44199,92.0,,,,,,,0.9414145350456238,,,,,,
44249,92.0,,,,,,,0.9702341556549072,,,,,,
44299,92.0,,,,,,,0.7232105731964111,,,,,,
44349,92.0,,,,,,,0.7187219858169556,,,,,,
44399,92.0,,,,,,,0.9769589304924011,,,,,,
44449,92.0,,,,,,,0.8707261085510254,,,,,,
44499,92.0,,,,,,,0.7125707864761353,,,,,,
44549,92.0,,,,,,,0.7496331930160522,,,,,,
44599,92.0,,,,,,,0.7702534198760986,,,,,,
44639,92.0,,,0.0,0.0,0.0,0.0,,8.338251063833013e-06,20.38103675842285,2.348249912261963,4.297740459442139,13.73504638671875,0.6818473935127258
44640,,,8.300256013171747e-06,,,,,,,,,,,
44649,93.0,,,,,,,0.7616239786148071,,,,,,
44699,93.0,,,,,,,0.9319133758544922,,,,,,
44749,93.0,,,,,,,1.1057056188583374,,,,,,
44799,93.0,,,,,,,0.5235113501548767,,,,,,
44849,93.0,,,,,,,0.7116763591766357,,,,,,
44899,93.0,,,,,,,0.833517849445343,,,,,,
44949,93.0,,,,,,,0.868465781211853,,,,,,
44999,93.0,,,,,,,0.7821914553642273,,,,,,
45049,93.0,,,,,,,0.6858096122741699,,,,,,
45099,93.0,,,,,,,0.8520691394805908,,,,,,
45119,93.0,,,0.0,0.0,0.0,0.0,,8.300256013171747e-06,20.536109924316406,2.5919361114501953,4.27558708190918,13.668586730957031,0.6767318248748779
45120,,,8.26193172542844e-06,,,,,,,,,,,
45149,94.0,,,,,,,0.9797654151916504,,,,,,
45199,94.0,,,,,,,0.7123717665672302,,,,,,
45249,94.0,,,,,,,0.7803022861480713,,,,,,
45299,94.0,,,,,,,0.864251971244812,,,,,,
45349,94.0,,,,,,,0.7876135110855103,,,,,,
45399,94.0,,,,,,,0.755355179309845,,,,,,
45449,94.0,,,,,,,0.6567251682281494,,,,,,
45499,94.0,,,,,,,0.8056401610374451,,,,,,
45549,94.0,,,,,,,0.9060571193695068,,,,,,
45599,94.0,,,0.0,0.0,0.0,0.0,1.8002275228500366,8.26193172542844e-06,20.070890426635742,2.9242358207702637,3.8325209617614746,13.314133644104004,0.6761943101882935
45600,,,8.223283657571301e-06,,,,,,,,,,,
45649,95.0,,,,,,,0.7547011971473694,,,,,,
45699,95.0,,,,,,,1.0155425071716309,,,,,,
45749,95.0,,,,,,,0.8770954608917236,,,,,,
45799,95.0,,,,,,,0.6604547500610352,,,,,,
45849,95.0,,,,,,,0.8878142833709717,,,,,,
45899,95.0,,,,,,,0.6411454081535339,,,,,,
45949,95.0,,,,,,,0.8955022692680359,,,,,,
45999,95.0,,,,,,,0.6085304021835327,,,,,,
46049,95.0,,,,,,,0.8286747932434082,,,,,,
46079,95.0,,,0.0,0.0,0.0,0.0,,8.223283657571301e-06,19.78289794921875,2.370403289794922,4.076207160949707,13.336287498474121,0.6773339509963989
46080,,,8.18431635707384e-06,,,,,,,,,,,
46099,96.0,,,,,,,0.850043535232544,,,,,,
46149,96.0,,,,,,,0.7065702676773071,,,,,,
46199,96.0,,,,,,,1.0474426746368408,,,,,,
46249,96.0,,,,,,,0.8205328583717346,,,,,,
46299,96.0,,,,,,,0.6934783458709717,,,,,,
46349,96.0,,,,,,,0.9000725150108337,,,,,,
46399,96.0,,,,,,,0.7795194387435913,,,,,,
46449,96.0,,,,,,,0.7744604349136353,,,,,,
46499,96.0,,,,,,,0.8157913684844971,,,,,,
46549,96.0,,,,,,,0.8385254144668579,,,,,,
46559,96.0,,,0.0,0.0,0.0,0.0,,8.18431635707384e-06,20.358882904052734,2.0824103355407715,4.8294196128845215,13.447053909301758,0.6652997136116028
46560,,,8.145033461914863e-06,,,,,,,,,,,
46599,97.0,,,,,,,0.8557456135749817,,,,,,
46649,97.0,,,,,,,0.7919528484344482,,,,,,
46699,97.0,,,,,,,0.6488940715789795,,,,,,
46749,97.0,,,,,,,0.7797258496284485,,,,,,
46799,97.0,,,,,,,0.8973098397254944,,,,,,
46849,97.0,,,,,,,0.8587155342102051,,,,,,
46899,97.0,,,,,,,0.6753183603286743,,,,,,
46949,97.0,,,,,,,0.8664682507514954,,,,,,
46999,97.0,,,,,,,0.9036602973937988,,,,,,
47039,97.0,,,0.0,0.0,0.0,0.0,,8.145033461914863e-06,19.871511459350586,2.9463889598846436,3.610988140106201,13.314133644104004,0.6698689460754395
47040,,,8.105440429062583e-06,,,,,,,,,,,
47049,98.0,,,,,,,0.7475906610488892,,,,,,
47099,98.0,,,,,,,0.8761240243911743,,,,,,
47149,98.0,,,,,,,0.7677606344223022,,,,,,
47199,98.0,,,,,,,0.776199221611023,,,,,,
47249,98.0,,,,,,,0.8697510361671448,,,,,,
47299,98.0,,,,,,,0.772339940071106,,,,,,
47349,98.0,,,,,,,0.6766161918640137,,,,,,
47399,98.0,,,,,,,1.3103443384170532,,,,,,
47449,98.0,,,,,,,0.7061209678649902,,,,,,
47499,98.0,,,,,,,0.8459012508392334,,,,,,
47519,98.0,,,0.0,0.0,0.0,0.0,,8.105440429062583e-06,20.33673095703125,2.0824103355407715,4.8294196128845215,13.42490005493164,0.6605010032653809
47520,,,8.065541805990506e-06,,,,,,,,,,,
47549,99.0,,,,,,,0.9497474431991577,,,,,,
47599,99.0,,,,,,,0.8721528649330139,,,,,,
47649,99.0,,,,,,,0.887933611869812,,,,,,
47699,99.0,,,,,,,0.8883653879165649,,,,,,
47749,99.0,,,,,,,1.009880542755127,,,,,,
47799,99.0,,,,,,,0.7047995328903198,,,,,,
47849,99.0,,,,,,,0.580582857131958,,,,,,
47899,99.0,,,,,,,0.7534977793693542,,,,,,
47949,99.0,,,,,,,0.831268846988678,,,,,,
47999,99.0,,,0.0,0.0,0.0,0.0,0.7235235571861267,8.065541805990506e-06,19.649978637695312,2.6362428665161133,3.7660610675811768,13.247673988342285,0.6611901521682739
48000,,,8.025342140172143e-06,,,,,,,,,,,
48049,100.0,,,,,,,0.8670570850372314,,,,,,
48099,100.0,,,,,,,0.8960105776786804,,,,,,
48149,100.0,,,,,,,0.8498293161392212,,,,,,
48199,100.0,,,,,,,0.7669942378997803,,,,,,
48249,100.0,,,,,,,0.7577158212661743,,,,,,
48299,100.0,,,,,,,0.7756964564323425,,,,,,
48349,100.0,,,,,,,0.7882115840911865,,,,,,
48399,100.0,,,,,,,0.9521718621253967,,,,,,
48449,100.0,,,,,,,0.7160674333572388,,,,,,
48479,100.0,,,0.0,0.0,0.0,0.0,,8.025342140172143e-06,19.78289794921875,2.237483501434326,4.452813625335693,13.09260082244873,0.6570793986320496
48480,,,7.9848450695863e-06,,,,,,,,,,,
48499,101.0,,,,,,,0.9311381578445435,,,,,,
48549,101.0,,,,,,,0.7414242029190063,,,,,,
48599,101.0,,,,,,,0.9370616674423218,,,,,,
48649,101.0,,,,,,,0.7118456363677979,,,,,,
48699,101.0,,,,,,,0.8251993656158447,,,,,,
48749,101.0,,,,,,,0.7039523720741272,,,,,,
48799,101.0,,,,,,,0.782372772693634,,,,,,
48849,101.0,,,,,,,0.8370976448059082,,,,,,
48899,101.0,,,,,,,0.8505920171737671,,,,,,
48949,101.0,,,,,,,0.8155009150505066,,,,,,
48959,101.0,,,0.0,0.0,0.0,0.0,,7.9848450695863e-06,19.051837921142578,2.326096534729004,3.743907928466797,12.981834411621094,0.6431765556335449
48960,,,7.94405787019059e-06,,,,,,,,,,,
48999,102.0,,,,,,,0.7925516366958618,,,,,,
49049,102.0,,,,,,,0.4794185757637024,,,,,,
49099,102.0,,,,,,,0.858222246170044,,,,,,
49149,102.0,,,,,,,0.8126261234283447,,,,,,
49199,102.0,,,,,,,0.8106848001480103,,,,,,
49249,102.0,,,,,,,0.915042519569397,,,,,,
49299,102.0,,,,,,,0.7304003834724426,,,,,,
49349,102.0,,,,,,,1.048635482788086,,,,,,
49399,102.0,,,,,,,0.7802904844284058,,,,,,
49439,102.0,,,0.0,0.0,0.0,0.0,,7.94405787019059e-06,19.738590240478516,2.791315793991089,4.209126949310303,12.738147735595703,0.660129725933075
49440,,,7.902983270469122e-06,,,,,,,,,,,
49449,103.0,,,,,,,0.7286980748176575,,,,,,
49499,103.0,,,,,,,0.546288788318634,,,,,,
49549,103.0,,,,,,,0.7974127531051636,,,,,,
49599,103.0,,,,,,,0.6820893883705139,,,,,,
49649,103.0,,,,,,,0.9690934419631958,,,,,,
49699,103.0,,,,,,,0.6606128215789795,,,,,,
49749,103.0,,,,,,,0.860769510269165,,,,,,
49799,103.0,,,,,,,0.8864577412605286,,,,,,
49849,103.0,,,,,,,0.8008062243461609,,,,,,
49899,103.0,,,,,,,0.73354172706604,,,,,,
49919,103.0,,,0.0,0.0,0.0,0.0,,7.902983270469122e-06,19.339832305908203,2.303943395614624,3.9875941276550293,13.048294067382812,0.649044394493103
49920,,,7.861625817895401e-06,,,,,,,,,,,
49949,104.0,,,,,,,0.8097970485687256,,,,,,
49999,104.0,,,,,,,0.8641427755355835,,,,,,
50049,104.0,,,,,,,0.7517585754394531,,,,,,
50099,104.0,,,,,,,0.7813588380813599,,,,,,
50149,104.0,,,,,,,0.842530369758606,,,,,,
50199,104.0,,,,,,,0.7502985596656799,,,,,,
50249,104.0,,,,,,,0.7845269441604614,,,,,,
50299,104.0,,,,,,,0.8397132158279419,,,,,,
50349,104.0,,,,,,,0.690228283405304,,,,,,
50399,104.0,,,0.0,0.0,0.0,0.0,0.9449235796928406,7.861625817895401e-06,18.74169158935547,2.348249912261963,3.9432876110076904,12.450155258178711,0.633782684803009
50400,,,7.819992788427044e-06,,,,,,,,,,,
50449,105.0,,,,,,,0.5845150947570801,,,,,,
50499,105.0,,,,,,,0.9371849894523621,,,,,,
50549,105.0,,,,,,,0.605847179889679,,,,,,
50599,105.0,,,,,,,0.7762711644172668,,,,,,
50649,105.0,,,,,,,0.7150055170059204,,,,,,
50699,105.0,,,,,,,0.8365427255630493,,,,,,
50749,105.0,,,,,,,0.8681625127792358,,,,,,
50799,105.0,,,,,,,0.8921540379524231,,,,,,
50849,105.0,,,,,,,0.5950797200202942,,,,,,
50879,105.0,,,0.0,0.0,0.0,0.0,,7.819992788427044e-06,18.941072463989258,2.326096534729004,4.031900882720947,12.583074569702148,0.6365277767181396
50880,,,7.778086001053452e-06,,,,,,,,,,,
50899,106.0,,,,,,,0.6518107652664185,,,,,,
50949,106.0,,,,,,,0.7356545925140381,,,,,,
50999,106.0,,,,,,,0.5959482192993164,,,,,,
51049,106.0,,,,,,,0.8808086514472961,,,,,,
51099,106.0,,,,,,,0.5765039920806885,,,,,,
51149,106.0,,,,,,,0.7458596229553223,,,,,,
51199,106.0,,,,,,,1.1234207153320312,,,,,,
51249,106.0,,,,,,,0.7875136137008667,,,,,,
51299,106.0,,,,,,,0.9415385723114014,,,,,,
51349,106.0,,,,,,,0.6263483166694641,,,,,,
51359,106.0,,,0.0,0.0,0.0,0.0,,7.778086001053452e-06,18.763845443725586,2.1488702297210693,4.009747505187988,12.605228424072266,0.6445695161819458
51360,,,7.735912731732242e-06,,,,,,,,,,,
51399,107.0,,,,,,,0.7967370748519897,,,,,,
51449,107.0,,,,,,,0.8084033131599426,,,,,,
51499,107.0,,,,,,,0.7390754818916321,,,,,,
51549,107.0,,,,,,,0.7831001281738281,,,,,,
51599,107.0,,,,,,,0.7196253538131714,,,,,,
51649,107.0,,,,,,,0.7189368605613708,,,,,,
51699,107.0,,,,,,,0.8099275827407837,,,,,,
51749,107.0,,,,,,,0.7844617366790771,,,,,,
51799,107.0,,,,,,,0.9896033406257629,,,,,,
51839,107.0,,,0.0,0.0,0.0,0.0,,7.735912731732242e-06,19.051837921142578,2.348249912261963,3.322995185852051,13.380593299865723,0.6317061185836792
51840,,,7.693476618442219e-06,,,,,,,,,,,
51849,108.0,,,,,,,0.7419493794441223,,,,,,
51899,108.0,,,,,,,0.8573498129844666,,,,,,
51949,108.0,,,,,,,0.9966946244239807,,,,,,
51999,108.0,,,,,,,0.6469321250915527,,,,,,
52049,108.0,,,,,,,0.723792314529419,,,,,,
52099,108.0,,,,,,,0.7742561101913452,,,,,,
52149,108.0,,,,,,,0.8525625467300415,,,,,,
52199,108.0,,,,,,,0.6886751651763916,,,,,,
52249,108.0,,,,,,,0.7936696410179138,,,,,,
52299,108.0,,,,,,,0.823174238204956,,,,,,
52319,108.0,,,0.0,0.0,0.0,0.0,,7.693476618442219e-06,19.096145629882812,2.3925564289093018,3.699601173400879,13.003987312316895,0.6463267803192139
52320,,,7.650784027646296e-06,,,,,,,,,,,
52349,109.0,,,,,,,0.7274512648582458,,,,,,
52399,109.0,,,,,,,0.7052863836288452,,,,,,
52449,109.0,,,,,,,0.6312241554260254,,,,,,
52499,109.0,,,,,,,0.746424674987793,,,,,,
52549,109.0,,,,,,,0.6453686952590942,,,,,,
52599,109.0,,,,,,,0.7409120202064514,,,,,,
52649,109.0,,,,,,,0.9658700823783875,,,,,,
52699,109.0,,,,,,,0.6994864344596863,,,,,,
52749,109.0,,,,,,,0.9727945923805237,,,,,,
52799,109.0,,,0.0,0.0,0.0,0.0,0.5347592830657959,7.650784027646296e-06,18.74169158935547,2.4811697006225586,3.4337615966796875,12.826761245727539,0.624112606048584
52800,,,7.607838142575929e-06,,,,,,,,,,,
52849,110.0,,,,,,,0.5268651843070984,,,,,,
52899,110.0,,,,,,,0.6424427032470703,,,,,,
52949,110.0,,,,,,,0.929948091506958,,,,,,
52999,110.0,,,,,,,0.7743757963180542,,,,,,
53049,110.0,,,,,,,0.8571561574935913,,,,,,
53099,110.0,,,,,,,0.7642732858657837,,,,,,
53149,110.0,,,,,,,0.8026947975158691,,,,,,
53199,110.0,,,,,,,0.678514838218689,,,,,,
53249,110.0,,,,,,,0.8595716953277588,,,,,,
53279,110.0,,,0.0,0.0,0.0,0.0,,7.607838142575929e-06,18.80815315246582,2.5697829723358154,3.8989808559417725,12.339388847351074,0.6224689483642578
53280,,,7.56464487494668e-06,,,,,,,,,,,
53299,111.0,,,,,,,0.9208225011825562,,,,,,
53349,111.0,,,,,,,0.7238478660583496,,,,,,
53399,111.0,,,,,,,0.8127040266990662,,,,,,
53449,111.0,,,,,,,0.7758452892303467,,,,,,
53499,111.0,,,,,,,0.683052659034729,,,,,,
53549,111.0,,,,,,,0.7817924618721008,,,,,,
53599,111.0,,,,,,,0.6193958520889282,,,,,,
53649,111.0,,,,,,,0.8313790559768677,,,,,,
53699,111.0,,,,,,,0.8691230416297913,,,,,,
53749,111.0,,,,,,,0.8033288717269897,,,,,,
53759,111.0,,,0.0,0.0,0.0,0.0,,7.56464487494668e-06,18.785999298095703,2.9242358207702637,3.322995185852051,12.53876781463623,0.6282693147659302
53760,,,7.521209681726759e-06,,,,,,,,,,,
53799,112.0,,,,,,,0.7337734699249268,,,,,,
53849,112.0,,,,,,,0.6533752679824829,,,,,,
53899,112.0,,,,,,,0.7224825024604797,,,,,,
53949,112.0,,,,,,,0.6759582161903381,,,,,,
53999,112.0,,,,,,,0.8126552700996399,,,,,,
54049,112.0,,,,,,,0.6251254081726074,,,,,,
54099,112.0,,,,,,,0.6218768358230591,,,,,,
54149,112.0,,,,,,,0.7976911067962646,,,,,,
54199,112.0,,,,,,,0.604968249797821,,,,,,
54239,112.0,,,0.0,0.0,0.0,0.0,,7.521209681726759e-06,18.852458953857422,2.5033230781555176,4.120513916015625,12.228622436523438,0.6117161512374878
54240,,,7.477537110389676e-06,,,,,,,,,,,
54249,113.0,,,,,,,0.8015279769897461,,,,,,
54299,113.0,,,,,,,0.6593246459960938,,,,,,
54349,113.0,,,,,,,0.7101989984512329,,,,,,
54399,113.0,,,,,,,0.5210435390472412,,,,,,
54449,113.0,,,,,,,0.9201676249504089,,,,,,
54499,113.0,,,,,,,0.6797978281974792,,,,,,
54549,113.0,,,,,,,0.6642519235610962,,,,,,
54599,113.0,,,,,,,0.6080160737037659,,,,,,
54649,113.0,,,,,,,0.692314624786377,,,,,,
54699,113.0,,,,,,,0.6820411682128906,,,,,,
54719,113.0,,,0.0,0.0,0.0,0.0,,7.477537110389676e-06,18.852458953857422,2.370403289794922,3.9432876110076904,12.53876781463623,0.6158865690231323
54720,,,7.4336326179036405e-06,,,,,,,,,,,
54749,114.0,,,,,,,0.964252233505249,,,,,,
54799,114.0,,,,,,,1.0137639045715332,,,,,,
54849,114.0,,,,,,,0.6430779695510864,,,,,,
54899,114.0,,,,,,,0.7274399995803833,,,,,,
54949,114.0,,,,,,,0.7361995577812195,,,,,,
54999,114.0,,,,,,,0.50614333152771,,,,,,
55049,114.0,,,,,,,0.6312711238861084,,,,,,
55099,114.0,,,,,,,0.8161634206771851,,,,,,
55149,114.0,,,,,,,0.5465914607048035,,,,,,
55199,114.0,,,0.0,0.0,0.0,0.0,0.735491156578064,7.4336326179036405e-06,18.07709312438965,2.1045634746551514,4.319893836975098,11.652636528015137,0.6086530685424805
55200,,,7.389500751742162e-06,,,,,,,,,,,
55249,115.0,,,,,,,0.9989656209945679,,,,,,
55299,115.0,,,,,,,0.5800528526306152,,,,,,
55349,115.0,,,,,,,0.72467041015625,,,,,,
55399,115.0,,,,,,,0.6395139694213867,,,,,,
55449,115.0,,,,,,,0.922944962978363,,,,,,
55499,115.0,,,,,,,0.560172975063324,,,,,,
55549,115.0,,,,,,,0.7762056589126587,,,,,,
55599,115.0,,,,,,,0.6377907991409302,,,,,,
55649,115.0,,,,,,,0.7669425010681152,,,,,,
55679,115.0,,,0.0,0.0,0.0,0.0,,7.389500751742162e-06,18.98537826538086,2.1488702297210693,4.674346446990967,12.162161827087402,0.6121798753738403
55680,,,7.345147878368152e-06,,,,,,,,,,,
55699,116.0,,,,,,,0.6064174175262451,,,,,,
55749,116.0,,,,,,,0.7850095629692078,,,,,,
55799,116.0,,,,,,,0.6435095071792603,,,,,,
55849,116.0,,,,,,,0.9017238616943359,,,,,,
55899,116.0,,,,,,,0.4565262198448181,,,,,,
55949,116.0,,,,,,,0.6746283769607544,,,,,,
55999,116.0,,,,,,,0.6735534071922302,,,,,,
56049,116.0,,,,,,,1.0622423887252808,,,,,,
56099,116.0,,,,,,,0.9036864042282104,,,,,,
56149,116.0,,,,,,,0.9324157238006592,,,,,,
56159,116.0,,,0.0,0.0,0.0,0.0,,7.345147878368152e-06,18.1878604888916,2.5033230781555176,3.610988140106201,12.073549270629883,0.6058701872825623
56160,,,7.30057809050777e-06,,,,,,,,,,,
56199,117.0,,,,,,,0.7387416362762451,,,,,,
56249,117.0,,,,,,,0.9142031669616699,,,,,,
56299,117.0,,,,,,,0.9479880332946777,,,,,,
56349,117.0,,,,,,,0.7064749002456665,,,,,,
56399,117.0,,,,,,,0.6978322863578796,,,,,,
56449,117.0,,,,,,,0.6450594663619995,,,,,,
56499,117.0,,,,,,,0.642071008682251,,,,,,
56549,117.0,,,,,,,0.838276743888855,,,,,,
56599,117.0,,,,,,,0.8822318315505981,,,,,,
56639,117.0,,,0.0,0.0,0.0,0.0,,7.30057809050777e-06,18.165706634521484,2.5697829723358154,3.633141279220581,11.962782859802246,0.6089457273483276
56640,,,7.255796845129225e-06,,,,,,,,,,,
56649,118.0,,,,,,,1.0012962818145752,,,,,,
56699,118.0,,,,,,,0.8464810252189636,,,,,,
56749,118.0,,,,,,,0.7129945755004883,,,,,,
56799,118.0,,,,,,,0.7231942415237427,,,,,,
56849,118.0,,,,,,,0.6212754249572754,,,,,,
56899,118.0,,,,,,,0.8437656760215759,,,,,,
56949,118.0,,,,,,,0.5358827710151672,,,,,,
56999,118.0,,,,,,,0.6820653676986694,,,,,,
57049,118.0,,,,,,,1.050875186920166,,,,,,
57099,118.0,,,,,,,0.8040111660957336,,,,,,
57119,118.0,,,0.0,0.0,0.0,0.0,,7.255796845129225e-06,18.49800682067871,2.370403289794922,3.8768277168273926,12.250775337219238,0.6084970235824585
57120,,,7.210809599200729e-06,,,,,,,,,,,
57149,119.0,,,,,,,0.6758456230163574,,,,,,
57199,119.0,,,,,,,0.616291880607605,,,,,,
57249,119.0,,,,,,,1.058479905128479,,,,,,
57299,119.0,,,,,,,0.6152974367141724,,,,,,
57349,119.0,,,,,,,0.8463462591171265,,,,,,
57399,119.0,,,,,,,0.6889917850494385,,,,,,
57449,119.0,,,,,,,0.8377493023872375,,,,,,
57499,119.0,,,,,,,0.8545819520950317,,,,,,
57549,119.0,,,,,,,0.6087073683738708,,,,,,
57599,119.0,,,0.0,0.0,0.0,0.0,0.716871440410614,7.210809599200729e-06,18.67523193359375,2.237483501434326,4.386353492736816,12.051395416259766,0.6103121042251587
57600,,,7.165621809690492e-06,,,,,,,,,,,
57649,120.0,,,,,,,0.7873153686523438,,,,,,
57699,120.0,,,,,,,0.6650247573852539,,,,,,
57749,120.0,,,,,,,0.6529552936553955,,,,,,
57799,120.0,,,,,,,0.8062732815742493,,,,,,
57849,120.0,,,,,,,1.0492883920669556,,,,,,
57899,120.0,,,,,,,0.7835975289344788,,,,,,
57949,120.0,,,,,,,0.812321662902832,,,,,,
57999,120.0,,,,,,,0.7313803434371948,,,,,,
58049,120.0,,,,,,,0.8372114896774292,,,,,,
58079,120.0,,,0.0,0.0,0.0,0.0,,7.165621809690492e-06,18.36508560180664,2.6140894889831543,3.8103678226470947,11.940629005432129,0.6140074729919434
58080,,,7.120238478819374e-06,,,,,,,,,,,
58099,121.0,,,,,,,0.5483124256134033,,,,,,
58149,121.0,,,,,,,0.5010702013969421,,,,,,
58199,121.0,,,,,,,0.6834506988525391,,,,,,
58249,121.0,,,,,,,0.9473390579223633,,,,,,
58299,121.0,,,,,,,0.6301485300064087,,,,,,
58349,121.0,,,,,,,0.7875160574913025,,,,,,
58399,121.0,,,,,,,0.8176184296607971,,,,,,
58449,121.0,,,,,,,0.6334888935089111,,,,,,
58499,121.0,,,,,,,0.6573454141616821,,,,,,
58549,121.0,,,,,,,0.710665225982666,,,,,,
58559,121.0,,,0.0,0.0,0.0,0.0,,7.120238478819374e-06,17.722640991210938,2.3925564289093018,3.234381914138794,12.095702171325684,0.5995072722434998
58560,,,7.074664608808234e-06,,,,,,,,,,,
58599,122.0,,,,,,,0.8292550444602966,,,,,,
58649,122.0,,,,,,,0.8920748233795166,,,,,,
58699,122.0,,,,,,,0.6325933933258057,,,,,,
58749,122.0,,,,,,,0.6121170520782471,,,,,,
58799,122.0,,,,,,,0.8383527994155884,,,,,,
58849,122.0,,,,,,,0.7022322416305542,,,,,,
58899,122.0,,,,,,,0.7872669696807861,,,,,,
58949,122.0,,,,,,,0.6461387872695923,,,,,,
58999,122.0,,,,,,,0.6459454894065857,,,,,,
59039,122.0,,,0.0,0.0,0.0,0.0,,7.074664608808234e-06,18.298625946044922,2.5919361114501953,3.5445282459259033,12.162161827087402,0.6054908633232117
59040,,,7.028906566119986e-06,,,,,,,,,,,
59049,123.0,,,,,,,0.6822824478149414,,,,,,
59099,123.0,,,,,,,0.6288868188858032,,,,,,
59149,123.0,,,,,,,0.8102631568908691,,,,,,
59199,123.0,,,,,,,1.1379709243774414,,,,,,
59249,123.0,,,,,,,0.6382830142974854,,,,,,
59299,123.0,,,,,,,1.018367052078247,,,,,,
59349,123.0,,,,,,,0.5845046639442444,,,,,,
59399,123.0,,,,,,,0.9254472255706787,,,,,,
59449,123.0,,,,,,,0.8598703145980835,,,,,,
59499,123.0,,,,,,,0.6376954913139343,,,,,,
59519,123.0,,,0.0,0.0,0.0,0.0,,7.028906566119986e-06,17.89986801147461,2.5919361114501953,3.322995185852051,11.984935760498047,0.597684383392334
59520,,,6.982968898228137e-06,,,,,,,,,,,
59549,124.0,,,,,,,0.6116385459899902,,,,,,
59599,124.0,,,,,,,0.5965360403060913,,,,,,
59649,124.0,,,,,,,0.6652125120162964,,,,,,
59699,124.0,,,,,,,0.6765038371086121,,,,,,
59749,124.0,,,,,,,0.6327189803123474,,,,,,
59799,124.0,,,,,,,0.815254807472229,,,,,,
59849,124.0,,,,,,,0.7439093589782715,,,,,,
59899,124.0,,,,,,,0.7648155093193054,,,,,,
59949,124.0,,,,,,,0.6040210127830505,,,,,,
59999,124.0,,,0.0,0.0,0.0,0.0,0.755199134349823,6.982968898228137e-06,18.32077980041504,2.5476295948028564,3.566681385040283,12.20646858215332,0.6133333444595337
60000,,,6.9368570621008985e-06,,,,,,,,,,,
60049,125.0,,,,,,,0.6780339479446411,,,,,,
60099,125.0,,,,,,,0.9041973352432251,,,,,,
60149,125.0,,,,,,,0.6836490631103516,,,,,,
60199,125.0,,,,,,,0.5370948314666748,,,,,,
60249,125.0,,,,,,,0.6551428437232971,,,,,,
60299,125.0,,,,,,,0.467915415763855,,,,,,
60349,125.0,,,,,,,0.8166927099227905,,,,,,
60399,125.0,,,,,,,0.634129524230957,,,,,,
60449,125.0,,,,,,,0.7774136662483215,,,,,,
60479,125.0,,,0.0,0.0,0.0,0.0,,6.9368570621008985e-06,18.099246978759766,2.3925564289093018,3.322995185852051,12.383695602416992,0.6025501489639282
60480,,,6.890576514706481e-06,,,,,,,,,,,
60499,126.0,,,,,,,0.6425532102584839,,,,,,
60549,126.0,,,,,,,0.5028451681137085,,,,,,
60599,126.0,,,,,,,0.8275498151779175,,,,,,
60649,126.0,,,,,,,0.6078042984008789,,,,,,
60699,126.0,,,,,,,0.8111790418624878,,,,,,
60749,126.0,,,,,,,0.9820910692214966,,,,,,
60799,126.0,,,,,,,0.8653532862663269,,,,,,
60849,126.0,,,,,,,0.740260660648346,,,,,,
60899,126.0,,,,,,,0.7874116897583008,,,,,,
60949,126.0,,,,,,,0.6467143893241882,,,,,,
60959,126.0,,,0.0,0.0,0.0,0.0,,6.890576514706481e-06,17.478954315185547,2.5697829723358154,2.9242358207702637,11.984935760498047,0.5996459126472473
60960,,,6.844132713013096e-06,,,,,,,,,,,
60999,127.0,,,,,,,0.68137526512146,,,,,,
61049,127.0,,,,,,,0.7536500692367554,,,,,,
61099,127.0,,,,,,,1.106609582901001,,,,,,
61149,127.0,,,,,,,0.8653227090835571,,,,,,
61199,127.0,,,,,,,0.7630634307861328,,,,,,
61249,127.0,,,,,,,0.5726266503334045,,,,,,
61299,127.0,,,,,,,0.8778848648071289,,,,,,
61349,127.0,,,,,,,0.815690279006958,,,,,,
61399,127.0,,,,,,,0.8572204113006592,,,,,,
61439,127.0,,,0.0,0.0,0.0,0.0,,6.844132713013096e-06,17.988479614257812,2.74700927734375,3.145768642425537,12.095702171325684,0.6069211363792419
61440,,,6.797531568736304e-06,,,,,,,,,,,
61449,128.0,,,,,,,0.7051867246627808,,,,,,
61499,128.0,,,,,,,0.7399163246154785,,,,,,
61549,128.0,,,,,,,0.6337504982948303,,,,,,
61599,128.0,,,,,,,0.7436907291412354,,,,,,
61649,128.0,,,,,,,0.6454350352287292,,,,,,
61699,128.0,,,,,,,0.7292437553405762,,,,,,
61749,128.0,,,,,,,0.7732098698616028,,,,,,
61799,128.0,,,,,,,0.7193764448165894,,,,,,
61849,128.0,,,,,,,0.6568655967712402,,,,,,
61899,128.0,,,,,,,0.807567834854126,,,,,,
61919,128.0,,,0.0,0.0,0.0,0.0,,6.797531568736304e-06,18.032787322998047,2.0602569580078125,4.054054260253906,11.918476104736328,0.5974664688110352
61920,,,6.7507780840969644e-06,,,,,,,,,,,
61949,129.0,,,,,,,0.6793451309204102,,,,,,
61999,129.0,,,,,,,0.6693128347396851,,,,,,
62049,129.0,,,,,,,0.6827971935272217,,,,,,
62099,129.0,,,,,,,0.5992295145988464,,,,,,
62149,129.0,,,,,,,0.7689024806022644,,,,,,
62199,129.0,,,,,,,0.8163806200027466,,,,,,
62249,129.0,,,,,,,0.6798626780509949,,,,,,
62299,129.0,,,,,,,0.9507887363433838,,,,,,
62349,129.0,,,,,,,0.5685838460922241,,,,,,
62399,129.0,,,0.0,0.0,0.0,0.0,0.6422600150108337,6.7507780840969644e-06,18.409393310546875,2.6140894889831543,3.4780681133270264,12.317234992980957,0.5930866599082947
62400,,,6.703877716063289e-06,,,,,,,,,,,
62449,130.0,,,,,,,0.6552900671958923,,,,,,
62499,130.0,,,,,,,0.4474221169948578,,,,,,
62549,130.0,,,,,,,0.652807354927063,,,,,,
62599,130.0,,,,,,,0.9272149801254272,,,,,,
62649,130.0,,,,,,,0.7833583950996399,,,,,,
62699,130.0,,,,,,,0.6238196492195129,,,,,,
62749,130.0,,,,,,,0.7279688119888306,,,,,,
62799,130.0,,,,,,,0.7466001510620117,,,,,,
62849,130.0,,,,,,,0.6977765560150146,,,,,,
62879,130.0,,,0.0,0.0,0.0,0.0,,6.703877716063289e-06,18.719539642333984,2.5697829723358154,3.3451483249664307,12.804608345031738,0.6200366020202637
62880,,,6.656835921603488e-06,,,,,,,,,,,
62899,131.0,,,,,,,0.5840939283370972,,,,,,
62949,131.0,,,,,,,0.8582320809364319,,,,,,
62999,131.0,,,,,,,0.7049012184143066,,,,,,
63049,131.0,,,,,,,0.6109979152679443,,,,,,
63099,131.0,,,,,,,0.8482190370559692,,,,,,
63149,131.0,,,,,,,0.6741297245025635,,,,,,
63199,131.0,,,,,,,0.6798889636993408,,,,,,
63249,131.0,,,,,,,0.814876914024353,,,,,,
63299,131.0,,,,,,,0.7611232995986938,,,,,,
63349,131.0,,,,,,,0.682134747505188,,,,,,
63359,131.0,,,0.0,0.0,0.0,0.0,,6.656835921603488e-06,17.877714157104492,2.5476295948028564,3.1014621257781982,12.228622436523438,0.5920807719230652
63360,,,6.6096586124331225e-06,,,,,,,,,,,
63399,132.0,,,,,,,0.6971248984336853,,,,,,
63449,132.0,,,,,,,0.8726550340652466,,,,,,
63499,132.0,,,,,,,0.6910346746444702,,,,,,
63549,132.0,,,,,,,0.6892408132553101,,,,,,
63599,132.0,,,,,,,0.7055320143699646,,,,,,
63649,132.0,,,,,,,0.9352827072143555,,,,,,
63699,132.0,,,,,,,0.5454177260398865,,,,,,
63749,132.0,,,,,,,0.6707161664962769,,,,,,
63799,132.0,,,,,,,0.762627363204956,,,,,,
63839,132.0,,,0.0,0.0,0.0,0.0,,6.6096586124331225e-06,17.323881149291992,2.1045634746551514,3.610988140106201,11.608329772949219,0.5841696858406067
63840,,,6.562350790773053e-06,,,,,,,,,,,
63849,133.0,,,,,,,0.7697970867156982,,,,,,
63899,133.0,,,,,,,0.7525661587715149,,,,,,
63949,133.0,,,,,,,0.5344686508178711,,,,,,
63999,133.0,,,,,,,0.7733703851699829,,,,,,
64049,133.0,,,,,,,0.5816776752471924,,,,,,
64099,133.0,,,,,,,0.5864782333374023,,,,,,
64149,133.0,,,,,,,0.5881921052932739,,,,,,
64199,133.0,,,,,,,0.8227996826171875,,,,,,
64249,133.0,,,,,,,0.5695602893829346,,,,,,
64299,133.0,,,,,,,0.7134968042373657,,,,,,
64319,133.0,,,0.0,0.0,0.0,0.0,,6.562350790773053e-06,17.722640991210938,2.5476295948028564,2.8799290657043457,12.295082092285156,0.5959806442260742
64320,,,6.51491836833884e-06,,,,,,,,,,,
64349,134.0,,,,,,,0.6267517805099487,,,,,,
64399,134.0,,,,,,,0.7908661365509033,,,,,,
64449,134.0,,,,,,,0.5956786870956421,,,,,,
64499,134.0,,,,,,,0.9047101736068726,,,,,,
64549,134.0,,,,,,,0.507948100566864,,,,,,
64599,134.0,,,,,,,0.8095755577087402,,,,,,
64649,134.0,,,,,,,0.7193307876586914,,,,,,
64699,134.0,,,,,,,0.7942970991134644,,,,,,
64749,134.0,,,,,,,0.798285961151123,,,,,,
64799,134.0,,,0.0,0.0,0.0,0.0,0.5744665861129761,6.51491836833884e-06,17.877714157104492,2.303943395614624,3.566681385040283,12.007088661193848,0.5926522016525269
64800,,,6.467366802098695e-06,,,,,,,,,,,
64849,135.0,,,,,,,0.7641074061393738,,,,,,
64899,135.0,,,,,,,0.8918015360832214,,,,,,
64949,135.0,,,,,,,0.5973116159439087,,,,,,
64999,135.0,,,,,,,0.6202531456947327,,,,,,
65049,135.0,,,,,,,1.3237247467041016,,,,,,
65099,135.0,,,,,,,0.7006092071533203,,,,,,
65149,135.0,,,,,,,0.6883422136306763,,,,,,
65199,135.0,,,,,,,0.4654958248138428,,,,,,
65249,135.0,,,,,,,0.874467134475708,,,,,,
65279,135.0,,,0.0,0.0,0.0,0.0,,6.467366802098695e-06,17.988479614257812,2.4368631839752197,3.300841808319092,12.250775337219238,0.5976361632347107
65280,,,6.4197020037681796e-06,,,,,,,,,,,
65299,136.0,,,,,,,0.6957165002822876,,,,,,
65349,136.0,,,,,,,0.5618547201156616,,,,,,
65399,136.0,,,,,,,0.5881322622299194,,,,,,
65449,136.0,,,,,,,0.5108565092086792,,,,,,
65499,136.0,,,,,,,0.9036043286323547,,,,,,
65549,136.0,,,,,,,0.8011367917060852,,,,,,
65599,136.0,,,,,,,0.6430575847625732,,,,,,
65649,136.0,,,,,,,0.599461555480957,,,,,,
65699,136.0,,,,,,,0.5592819452285767,,,,,,
65749,136.0,,,,,,,0.7901904582977295,,,,,,
65759,136.0,,,0.0,0.0,0.0,0.0,,6.4197020037681796e-06,17.323881149291992,2.5919361114501953,3.3451483249664307,11.386796951293945,0.5839899182319641
65760,,,6.371928975568153e-06,,,,,,,,,,,
65799,137.0,,,,,,,0.5569344758987427,,,,,,
65849,137.0,,,,,,,0.8625884056091309,,,,,,
65899,137.0,,,,,,,0.6156504154205322,,,,,,
65949,137.0,,,,,,,0.7052833437919617,,,,,,
65999,137.0,,,,,,,0.807235598564148,,,,,,
66049,137.0,,,,,,,0.6215813159942627,,,,,,
66099,137.0,,,,,,,0.6596262454986572,,,,,,
66149,137.0,,,,,,,0.5287417769432068,,,,,,
66199,137.0,,,,,,,0.8415619134902954,,,,,,
66239,137.0,,,0.0,0.0,0.0,0.0,,6.371928975568153e-06,18.01063346862793,2.348249912261963,3.743907928466797,11.918476104736328,0.5848920345306396
66240,,,6.324054083961528e-06,,,,,,,,,,,
66249,138.0,,,,,,,0.618117094039917,,,,,,
66299,138.0,,,,,,,0.7179731130599976,,,,,,
66349,138.0,,,,,,,0.42506712675094604,,,,,,
66399,138.0,,,,,,,0.7386648654937744,,,,,,
66449,138.0,,,,,,,0.6442569494247437,,,,,,
66499,138.0,,,,,,,0.6474406123161316,,,,,,
66549,138.0,,,,,,,0.46348336338996887,,,,,,
66599,138.0,,,,,,,0.8708380460739136,,,,,,
66649,138.0,,,,,,,0.5440998673439026,,,,,,
66699,138.0,,,,,,,0.5941969156265259,,,,,,
66719,138.0,,,0.0,0.0,0.0,0.0,,6.324054083961528e-06,17.412494659423828,2.303943395614624,3.699601173400879,11.408949851989746,0.5745158195495605
66720,,,6.276081876421813e-06,,,,,,,,,,,
66749,139.0,,,,,,,0.6169631481170654,,,,,,
66799,139.0,,,,,,,0.6532553434371948,,,,,,
66849,139.0,,,,,,,0.720064103603363,,,,,,
66899,139.0,,,,,,,0.8021988868713379,,,,,,
66949,139.0,,,,,,,0.6606196165084839,,,,,,
66999,139.0,,,,,,,0.5966230034828186,,,,,,
67049,139.0,,,,,,,0.7530078887939453,,,,,,
67099,139.0,,,,,,,0.6357408761978149,,,,,,
67149,139.0,,,,,,,0.822358250617981,,,,,,
67199,139.0,,,0.0,0.0,0.0,0.0,0.7246767282485962,6.276081876421813e-06,17.45680046081543,2.724855899810791,3.212228536605835,11.519716262817383,0.5884264707565308
67200,,,6.228019174159272e-06,,,,,,,,,,,
67249,140.0,,,,,,,0.47408658266067505,,,,,,
67299,140.0,,,,,,,0.727059006690979,,,,,,
67349,140.0,,,,,,,0.762607216835022,,,,,,
67399,140.0,,,,,,,0.7473415732383728,,,,,,
67449,140.0,,,,,,,0.6581748723983765,,,,,,
67499,140.0,,,,,,,0.6354705691337585,,,,,,
67549,140.0,,,,,,,0.6513136625289917,,,,,,
67599,140.0,,,,,,,0.6954188346862793,,,,,,
67649,140.0,,,,,,,0.7244760990142822,,,,,,
67679,140.0,,,0.0,0.0,0.0,0.0,,6.228019174159272e-06,16.96942901611328,2.370403289794922,3.3894550800323486,11.209569931030273,0.5691442489624023
67680,,,6.179870524647413e-06,,,,,,,,,,,
67699,141.0,,,,,,,0.7706373929977417,,,,,,
67749,141.0,,,,,,,0.6109336614608765,,,,,,
67799,141.0,,,,,,,0.644992470741272,,,,,,
67849,141.0,,,,,,,0.7712743282318115,,,,,,
67899,141.0,,,,,,,0.5634831190109253,,,,,,
67949,141.0,,,,,,,1.0136011838912964,,,,,,
67999,141.0,,,,,,,0.5298078060150146,,,,,,
68049,141.0,,,,,,,0.8846402168273926,,,,,,
68099,141.0,,,,,,,0.7928578853607178,,,,,,
68149,141.0,,,,,,,0.5780327916145325,,,,,,
68159,141.0,,,0.0,0.0,0.0,0.0,,6.179870524647413e-06,17.501108169555664,2.3925564289093018,3.234381914138794,11.87416934967041,0.5759848952293396
68160,,,6.131642294349149e-06,,,,,,,,,,,
68199,142.0,,,,,,,0.6349766254425049,,,,,,
68249,142.0,,,,,,,0.5720075368881226,,,,,,
68299,142.0,,,,,,,0.46328118443489075,,,,,,
68349,142.0,,,,,,,0.6324452757835388,,,,,,
68399,142.0,,,,,,,0.6592574119567871,,,,,,
68449,142.0,,,,,,,0.6354389190673828,,,,,,
68499,142.0,,,,,,,0.5796469449996948,,,,,,
68549,142.0,,,,,,,0.8493422269821167,,,,,,
68599,142.0,,,,,,,0.6901238560676575,,,,,,
68639,142.0,,,0.0,0.0,0.0,0.0,,6.131642294349149e-06,17.124502182006836,2.326096534729004,3.8989808559417725,10.899423599243164,0.5662894248962402
68640,,,6.0833399402326904e-06,,,,,,,,,,,
68649,143.0,,,,,,,0.8162012100219727,,,,,,
68699,143.0,,,,,,,0.5794638395309448,,,,,,
68749,143.0,,,,,,,0.7359480261802673,,,,,,
68799,143.0,,,,,,,0.6113851070404053,,,,,,
68849,143.0,,,,,,,0.7815312743186951,,,,,,
68899,143.0,,,,,,,0.8608131408691406,,,,,,
68949,143.0,,,,,,,0.4651774764060974,,,,,,
68999,143.0,,,,,,,0.5566290020942688,,,,,,
69049,143.0,,,,,,,0.9881996512413025,,,,,,
69099,143.0,,,,,,,0.6376474499702454,,,,,,
69119,143.0,,,0.0,0.0,0.0,0.0,,6.0833399402326904e-06,16.681434631347656,2.348249912261963,3.0793087482452393,11.253876686096191,0.5644150376319885
69120,,,6.034969374013599e-06,,,,,,,,,,,
69149,144.0,,,,,,,0.7286242842674255,,,,,,
69199,144.0,,,,,,,0.779021680355072,,,,,,
69249,144.0,,,,,,,0.5670926570892334,,,,,,
69299,144.0,,,,,,,0.6609954833984375,,,,,,
69349,144.0,,,,,,,0.7765663862228394,,,,,,
69399,144.0,,,,,,,0.555893063545227,,,,,,
69449,144.0,,,,,,,0.7091587781906128,,,,,,
69499,144.0,,,,,,,0.6951357126235962,,,,,,
69549,144.0,,,,,,,0.4461786448955536,,,,,,
69599,144.0,,,0.0,0.0,0.0,0.0,0.7339791655540466,6.034969374013599e-06,17.545413970947266,2.303943395614624,3.588834762573242,11.652636528015137,0.5742743015289307
69600,,,5.986535597912734e-06,,,,,,,,,,,
69649,145.0,,,,,,,0.6586652994155884,,,,,,
69699,145.0,,,,,,,0.7923220992088318,,,,,,
69749,145.0,,,,,,,0.5657559037208557,,,,,,
69799,145.0,,,,,,,0.6449155807495117,,,,,,
69849,145.0,,,,,,,0.6056889295578003,,,,,,
69899,145.0,,,,,,,0.5242434740066528,,,,,,
69949,145.0,,,,,,,0.7758970260620117,,,,,,
69999,145.0,,,,,,,0.5340290069580078,,,,,,
70049,145.0,,,,,,,0.7059675455093384,,,,,,
70079,145.0,,,0.0,0.0,0.0,0.0,,5.986535597912734e-06,17.323881149291992,2.237483501434326,3.588834762573242,11.497563362121582,0.5706191062927246
70080,,,5.938044978393009e-06,,,,,,,,,,,
70099,146.0,,,,,,,0.7556626200675964,,,,,,
70149,146.0,,,,,,,0.8124505281448364,,,,,,
70199,146.0,,,,,,,0.7188488245010376,,,,,,
70249,146.0,,,,,,,1.056555986404419,,,,,,
70299,146.0,,,,,,,0.6569598317146301,,,,,,
70349,146.0,,,,,,,0.4589841961860657,,,,,,
70399,146.0,,,,,,,0.6178096532821655,,,,,,
70449,146.0,,,,,,,0.5929663777351379,,,,,,
70499,146.0,,,,,,,0.6332569122314453,,,,,,
70549,146.0,,,,,,,0.665402889251709,,,,,,
70559,146.0,,,0.0,0.0,0.0,0.0,,5.938044978393009e-06,17.035888671875,2.5476295948028564,3.322995185852051,11.165263175964355,0.5774030089378357
70560,,,5.889502972422633e-06,,,,,,,,,,,
70599,147.0,,,,,,,0.618872344493866,,,,,,
70649,147.0,,,,,,,0.7382614016532898,,,,,,
70699,147.0,,,,,,,0.5785346031188965,,,,,,
70749,147.0,,,,,,,0.3899102807044983,,,,,,
70799,147.0,,,,,,,0.5219773054122925,,,,,,
70849,147.0,,,,,,,0.7477898597717285,,,,,,
70899,147.0,,,,,,,0.5826212167739868,,,,,,
70949,147.0,,,,,,,0.7365612983703613,,,,,,
70999,147.0,,,,,,,0.8348503708839417,,,,,,
71039,147.0,,,0.0,0.0,0.0,0.0,,5.889502972422633e-06,17.058042526245117,2.5697829723358154,3.190075397491455,11.29818344116211,0.5614073276519775
71040,,,5.840915036969818e-06,,,,,,,,,,,
71049,148.0,,,,,,,0.5970968008041382,,,,,,
71099,148.0,,,,,,,0.4703170359134674,,,,,,
71149,148.0,,,,,,,0.6522027254104614,,,,,,
71199,148.0,,,,,,,0.7186444997787476,,,,,,
71249,148.0,,,,,,,0.5657607316970825,,,,,,
71299,148.0,,,,,,,0.6999483704566956,,,,,,
71349,148.0,,,,,,,0.49429506063461304,,,,,,
71399,148.0,,,,,,,0.6075594425201416,,,,,,
71449,148.0,,,,,,,0.6482183337211609,,,,,,
71499,148.0,,,,,,,0.8756434917449951,,,,,,
71519,148.0,,,0.0,0.0,0.0,0.0,,5.840915036969818e-06,16.79220199584961,2.5254762172698975,3.0350022315979004,11.23172378540039,0.5696185827255249
71520,,,5.792287083750125e-06,,,,,,,,,,,
71549,149.0,,,,,,,0.6096699833869934,,,,,,
71599,149.0,,,,,,,0.5326203107833862,,,,,,
71649,149.0,,,,,,,0.588079035282135,,,,,,
71699,149.0,,,,,,,0.5552264451980591,,,,,,
71749,149.0,,,,,,,0.7189457416534424,,,,,,
71799,149.0,,,,,,,0.7182896137237549,,,,,,
71849,149.0,,,,,,,0.7692900896072388,,,,,,
71899,149.0,,,,,,,0.542690634727478,,,,,,
71949,149.0,,,,,,,0.5227336883544922,,,,,,
71999,149.0,,,0.0,0.0,0.0,0.0,0.6478617191314697,5.792287083750125e-06,17.501108169555664,2.5919361114501953,3.278688430786133,11.63048267364502,0.5716678500175476
72000,,,5.743625024479115e-06,,,,,,,,,,,
72049,150.0,,,,,,,0.7182721495628357,,,,,,
72099,150.0,,,,,,,0.7562739849090576,,,,,,
72149,150.0,,,,,,,0.7577821016311646,,,,,,
72199,150.0,,,,,,,0.5165254473686218,,,,,,
72249,150.0,,,,,,,0.5699387788772583,,,,,,
72299,150.0,,,,,,,0.7493687272071838,,,,,,
72349,150.0,,,,,,,0.49989229440689087,,,,,,
72399,150.0,,,,,,,0.601779580116272,,,,,,
72449,150.0,,,,,,,0.58695387840271,,,,,,
72479,150.0,,,0.0,0.0,0.0,0.0,,5.743625024479115e-06,17.058042526245117,2.4368631839752197,3.0793087482452393,11.5418701171875,0.5753543972969055
72480,,,5.694934316125e-06,,,,,,,,,,,
72499,151.0,,,,,,,0.7918530106544495,,,,,,
72549,151.0,,,,,,,0.4544000029563904,,,,,,
72599,151.0,,,,,,,0.7298332452774048,,,,,,
72649,151.0,,,,,,,0.7264003753662109,,,,,,
72699,151.0,,,,,,,0.6152183413505554,,,,,,
72749,151.0,,,,,,,0.7356690168380737,,,,,,
72799,151.0,,,,,,,0.6446416974067688,,,,,,
72849,151.0,,,,,,,0.5062714219093323,,,,,,
72899,151.0,,,,,,,0.4947601556777954,,,,,,
72949,151.0,,,,,,,0.5654895305633545,,,,,,
72959,151.0,,,0.0,0.0,0.0,0.0,,5.694934316125e-06,16.991580963134766,2.4147098064422607,3.0128488540649414,11.5640230178833,0.5642146468162537
72960,,,5.64622087040334e-06,,,,,,,,,,,
72999,152.0,,,,,,,0.5744247436523438,,,,,,
73049,152.0,,,,,,,0.818022608757019,,,,,,
73099,152.0,,,,,,,0.5976096391677856,,,,,,
73149,152.0,,,,,,,0.6721654534339905,,,,,,
73199,152.0,,,,,,,0.5793232917785645,,,,,,
73249,152.0,,,,,,,0.6668142080307007,,,,,,
73299,152.0,,,,,,,0.49007004499435425,,,,,,
73349,152.0,,,,,,,0.6860058307647705,,,,,,
73399,152.0,,,,,,,0.7504158616065979,,,,,,
73439,152.0,,,0.0,0.0,0.0,0.0,,5.64622087040334e-06,17.323881149291992,2.4590163230895996,3.1236155033111572,11.741249084472656,0.5832380056381226
73440,,,5.597490144282347e-06,,,,,,,,,,,
73449,153.0,,,,,,,0.5262381434440613,,,,,,
73499,153.0,,,,,,,0.7295829057693481,,,,,,
73549,153.0,,,,,,,0.6406326293945312,,,,,,
73599,153.0,,,,,,,0.45288026332855225,,,,,,
