step,epoch,lr-Adam,train/CER,train/DER,train/IER,train/SER,train/loss,val/CER,val/DER,val/IER,val/SER,val/loss
0,1,9.99999993922529e-09,,,,,,,,,,
49,1,,,,,,129.79336547851562,,,,,
99,1,,,,,,168.8779296875,,,,,
119,1,,3036.238525390625,2973.06591796875,0.0,63.172489166259766,,2660.567138671875,2590.11962890625,0.0,70.44749450683594,134.65821838378906
120,2,5.556444375542924e-05,,,,,,,,,,
149,2,,,,,,13.53641128540039,,,,,
199,2,,,,,,12.52048110961914,,,,,
239,2,,177.43240356445312,92.4297866821289,52.12224578857422,32.880367279052734,,110.3234405517578,30.017723083496094,12.095702171325684,68.21001434326172,29.11692237854004
240,3,0.000111118890345,,,,,,,,,,
249,3,,,,,,6.332118034362793,,,,,
299,3,,,,,,6.515582084655762,,,,,
349,3,,,,,,5.442130088806152,,,,,
359,3,,94.32170104980467,1.4481382369995115,83.46892547607422,9.40463924407959,,85.53389739990234,0.7975188493728638,65.48516082763672,19.251218795776367,11.07103157043457
360,4,0.0001666733296588,,,,,,,,,,
399,4,,,,,,3.689876556396485,,,,,
449,4,,,,,,3.704580783843994,,,,,
479,4,,97.95401000976562,0.605810284614563,94.1787109375,3.1694891452789307,,100.0,0.0,100.0,0.0,3.5052270889282227
480,5,0.0002222277835244,,,,,,,,,,
499,5,,,,,,3.4044294357299805,,,,,
549,5,,,,,,3.320927143096924,,,,,
599,5,,100.0,0.0,100.0,0.0,3.3514885902404785,100.0,0.0,100.0,0.0,3.276975154876709
600,6,0.0002777822082862,,,,,,,,,,
649,6,,,,,,3.251868724822998,,,,,
699,6,,,,,,3.317793846130371,,,,,
719,6,,100.0,0.0,100.0,0.0,,100.0,0.0,100.0,0.0,3.199218511581421
720,7,0.0003333366767037,,,,,,,,,,
749,7,,,,,,3.1557741165161133,,,,,
799,7,,,,,,3.1855170726776123,,,,,
839,7,,100.0,0.0,100.0,0.0,,100.0,0.0,100.0,0.0,3.1574621200561523
840,8,0.0003888911160174,,,,,,,,,,
849,8,,,,,,3.238393783569336,,,,,
899,8,,,,,,3.2364706993103027,,,,,
949,8,,,,,,3.128191947937012,,,,,
959,8,,100.0,0.0,100.0,0.0,,100.0,0.0,100.0,0.0,3.110987901687622
960,9,0.0004444455553311,,,,,,,,,,
999,9,,,,,,3.080760955810547,,,,,
1049,9,,,,,,3.135364294052124,,,,,
1079,9,,100.0,0.0,100.0,0.0,,100.0,0.0,100.0,0.0,3.092531681060791
1080,10,0.0005000000237487,,,,,,,,,,
1099,10,,,,,,3.231919050216675,,,,,
1149,10,,,,,,3.151204824447632,,,,,
1199,10,,100.0,0.0,100.0,0.0,3.078454732894897,100.0,0.0,100.0,0.0,3.0443129539489746
1200,11,0.0005000000237487,,,,,,,,,,
1249,11,,,,,,3.128190994262696,,,,,
1299,11,,,,,,3.122702121734619,,,,,
1319,11,,100.0,0.0,100.0,0.0,,100.0,0.0,100.0,0.0,3.013763904571533
1320,12,0.0004999371594749,,,,,,,,,,
1349,12,,,,,,3.120421886444092,,,,,
1399,12,,,,,,3.5461201667785645,,,,,
1439,12,,100.0,0.0,100.0,0.0,,100.0,0.0,100.0,0.0,3.061955690383911
1440,13,0.0004997487412765,,,,,,,,,,
1449,13,,,,,,3.143666505813598,,,,,
1499,13,,,,,,2.916277885437012,,,,,
1549,13,,,,,,2.987910270690918,,,,,
1559,13,,99.99862670898438,0.0,99.99862670898438,0.0,,100.0,0.0,100.0,0.0,2.926553964614868
1560,14,0.0004994348273612,,,,,,,,,,
1599,14,,,,,,2.9648261070251465,,,,,
1649,14,,,,,,2.9360060691833496,,,,,
1679,14,,99.99862670898438,0.0,99.99724578857422,0.0013766709016636,,100.0,0.0,100.0,0.0,2.94840407371521
1680,15,0.000498995592352,,,,,,,,,,
1699,15,,,,,,2.9660494327545166,,,,,
1749,15,,,,,,2.856167316436768,,,,,
1799,15,,99.9421844482422,0.0,99.93392944335938,0.0082591157406568,2.796562433242798,99.60124206542967,0.0,99.60124206542967,0.0,2.7627272605896
1800,16,0.0004984312108717,,,,,,,,,,
1849,16,,,,,,2.5740115642547607,,,,,
1899,16,,,,,,2.809212207794189,,,,,
1919,16,,99.3611831665039,0.0013767656637355,99.32814025878906,0.0316656120121479,,97.31945037841795,0.0,97.0536117553711,0.2658396065235138,2.558390855789185
1920,17,0.0004977419739589,,,,,,,,,,
1949,17,,,,,,2.529417991638184,,,,,
1999,17,,,,,,2.6002206802368164,,,,,
2039,17,,97.43099212646484,0.0013767468044534,97.20245361328124,0.2271632105112075,,95.7244110107422,0.0,95.19273376464844,0.5316792130470276,2.4921140670776367
2040,18,0.0004969282308593,,,,,,,,,,
2049,18,,,,,,2.50674819946289,,,,,
2099,18,,,,,,2.584169387817383,,,,,
2149,18,,,,,,2.394237995147705,,,,,
2159,18,,94.16300201416016,0.0013818644220009,93.44719696044922,0.7144238948822021,,89.96455383300781,0.0,87.83783721923828,2.1267168521881104,2.251413345336914
2160,19,0.0004959904472343,,,,,,,,,,
2199,19,,,,,,2.585014581680298,,,,,
2249,19,,,,,,2.426952838897705,,,,,
2279,19,,89.74002838134766,0.0054991133511066,87.82083892822266,1.9136914014816284,,83.5179443359375,0.0221533011645078,79.97341918945312,3.5223748683929443,2.110999345779419
2280,20,0.0004949290305376,,,,,,,,,,
2299,20,,,,,,2.2117505073547363,,,,,
2349,20,,,,,,2.216245651245117,,,,,
2399,20,,85.52369689941406,0.0041133644990623,82.18639373779297,3.3331961631774902,2.192291498184204,82.69827270507812,0.0221533011645078,78.37837982177734,4.297740459442139,2.0375430583953857
2400,21,0.000493744504638,,,,,,,,,,
2449,21,,,,,,1.993177056312561,,,,,
2499,21,,,,,,1.9311912059783936,,,,,
2519,21,,81.19309997558594,0.0578504428267478,76.12154388427734,5.013705253601074,,77.66947174072266,0.0886132046580314,70.38103485107422,7.199822902679443,2.0439419746398926
2520,22,0.0004924375098198,,,,,,,,,,
2549,22,,,,,,1.9848735332489007,,,,,
2599,22,,,,,,1.8165483474731443,,,,,
2639,22,,76.76260375976562,0.1290127784013748,69.82884979248047,6.804737567901611,,68.01063537597656,0.3987594246864319,57.68719482421875,9.924678802490234,1.7510195970535278
2640,23,0.000491008744575,,,,,,,,,,
2649,23,,,,,,1.859778642654419,,,,,
2699,23,,,,,,1.7895773649215698,,,,,
2749,23,,,,,,1.9923176765441888,,,,,
2759,23,,71.1767807006836,0.3332323431968689,61.43730545043945,9.406240463256836,,68.12139892578125,0.3544528186321258,57.59858322143555,10.168365478515623,1.743309736251831
2760,24,0.0004894588491879,,,,,,,,,,
2799,24,,,,,,1.813346028327942,,,,,
2849,24,,,,,,1.7213668823242188,,,,,
2879,24,,63.93595886230469,0.847935140132904,50.3758659362793,12.71215534210205,,61.67478942871094,0.9082853198051452,45.34780502319336,15.418697357177734,1.7081916332244873
2880,25,0.0004877886094618,,,,,,,,,,
2899,25,,,,,,1.6652765274047852,,,,,
2949,25,,,,,,1.592563509941101,,,,,
2999,25,,58.00918960571289,1.7124229669570925,40.57960891723633,15.717154502868652,1.5129354000091553,52.10456466674805,2.769162654876709,33.34071731567383,15.994683265686035,1.4119607210159302
3000,26,0.0004859988985117,,,,,,,,,,
3049,26,,,,,,1.5303434133529663,,,,,
3099,26,,,,,,1.497851848602295,,,,,
3119,26,,53.31599426269531,2.506089687347412,33.01129913330078,17.79860496520996,,49.75631332397461,3.4559149742126465,29.86264991760254,16.4377498626709,1.357923150062561
3120,27,0.0004840905894525,,,,,,,,,,
3149,27,,,,,,1.448642015457153,,,,,
3199,27,,,,,,1.5692814588546753,,,,,
3239,27,,49.85063171386719,3.4416773319244385,27.47972869873047,18.92922592163086,,45.08196640014648,3.4559149742126465,25.52060317993164,16.105449676513672,1.3027186393737793
3240,28,0.0004820647009182,,,,,,,,,,
3249,28,,,,,,1.4461922645568848,,,,,
3299,28,,,,,,1.435386300086975,,,,,
3349,28,,,,,,1.3903616666793823,,,,,
3359,28,,47.49275970458984,4.050475597381592,24.044960021972656,19.39732360839844,,41.38236618041992,5.715551853179932,16.326982498168945,19.339832305908203,1.2472063302993774
3360,29,0.0004799221933353,,,,,,,,,,
3399,29,,,,,,1.427570343017578,,,,,
3449,29,,,,,,1.2292695045471191,,,,,
3479,29,,44.22429656982422,4.597479820251465,20.108821868896484,19.51799201965332,,40.23039245605469,5.560478687286377,15.994683265686035,18.67523193359375,1.1712193489074707
3480,30,0.0004776641435455,,,,,,,,,,
3499,30,,,,,,1.3325488567352295,,,,,
3549,30,,,,,,1.2665927410125732,,,,,
3599,30,,42.25907516479492,5.145503044128418,17.78324317932129,19.3303279876709,1.2583047151565552,40.11962890625,4.740806579589844,18.697385787963867,16.681434631347656,1.1709294319152832
3600,31,0.0004752917448058,,,,,,,,,,
3649,31,,,,,,1.2230615615844729,,,,,
3699,31,,,,,,1.2790980339050293,,,,,
3719,31,,40.38286590576172,5.441399097442627,16.074920654296875,18.86654663085937,,40.695613861083984,4.031900882720947,17.833406448364258,18.830305099487305,1.195034146308899
3720,32,0.0004728061321657,,,,,,,,,,
3749,32,,,,,,1.138355016708374,,,,,
3799,32,,,,,,1.2670912742614746,,,,,
3839,32,,39.30317306518555,5.509881019592285,15.127728462219238,18.665565490722656,,37.85999298095703,5.449711799621582,11.696943283081056,20.71333694458008,1.200432300567627
3840,33,0.0004702085861936,,,,,,,,,,
3849,33,,,,,,1.0145881175994873,,,,,
3899,33,,,,,,1.1033687591552734,,,,,
3949,33,,,,,,1.1092922687530518,,,,,
3959,33,,37.80797958374024,5.383864879608154,13.994200706481934,18.429912567138672,,35.31236267089844,5.2946391105651855,13.15906047821045,16.858661651611328,1.0871970653533936
3960,34,0.0004675004165619,,,,,,,,,,
3999,34,,,,,,1.214815378189087,,,,,
4049,34,,,,,,0.9613656997680664,,,,,
4079,34,,36.95763397216797,5.621436595916748,13.426839828491213,17.90935516357422,,34.337615966796875,5.183872222900391,13.07044792175293,16.083295822143555,1.0802260637283323
4080,35,0.0004646829620469,,,,,,,,,,
4099,35,,,,,,1.0854947566986084,,,,,
4149,35,,,,,,1.1515055894851685,,,,,
4199,35,,35.551456451416016,5.7086615562438965,12.374043464660645,17.468751907348633,1.0620135068893433,32.388126373291016,5.449711799621582,10.168365478515623,16.770048141479492,1.0075958967208862
4200,36,0.00046175767784,,,,,,,,,,
4249,36,,,,,,1.127311944961548,,,,,
4299,36,,,,,,1.021150827407837,,,,,
4319,36,,34.51313018798828,5.56973123550415,11.76914405822754,17.174253463745117,,34.35976791381836,4.8072662353515625,12.78245449066162,16.770048141479492,1.0503721237182615
4320,37,0.0004587260191328,,,,,,,,,,
4349,37,,,,,,1.1469647884368896,,,,,
4399,37,,,,,,1.0756889581680298,,,,,
4439,37,,33.22307586669922,5.421869277954102,10.703161239624023,17.098045349121094,,29.66326904296875,6.269383907318115,7.288435935974121,16.105449676513672,0.9518195986747742
4440,38,0.0004555895284283,,,,,,,,,,
4449,38,,,,,,0.970481276512146,,,,,
4499,38,,,,,,1.0047799348831177,,,,,
4549,38,,,,,,0.895561933517456,,,,,
4559,38,,31.52716064453125,5.796424388885498,9.616732597351074,16.114004135131836,,32.609657287597656,4.984492778778076,10.478510856628418,17.14665412902832,1.0327932834625244
4560,39,0.0004523497482296,,,,,,,,,,
4599,39,,,,,,1.0183638334274292,,,,,
4649,39,,,,,,0.9356568455696106,,,,,
4679,39,,31.566858291625977,5.811074733734131,9.61268711090088,16.143096923828125,,30.926008224487305,6.114311218261719,7.066903114318848,17.744794845581055,1.008499264717102
4680,40,0.0004490083374548,,,,,,,,,,
4699,40,,,,,,1.0308914184570312,,,,,
4749,40,,,,,,0.8605255484580994,,,,,
4799,40,,30.405256271362305,5.820411205291748,8.531288146972656,16.053558349609375,0.9019234776496888,30.06202888488769,6.114311218261719,7.044749736785889,16.902969360351562,0.9871317744255066
4800,41,0.0004455669550225,,,,,,,,,,
4849,41,,,,,,1.0331881046295166,,,,,
4899,41,,,,,,0.989232301712036,,,,,
4919,41,,30.56640243530273,6.033804893493652,8.97964859008789,15.552948951721191,,27.580860137939453,6.291537284851074,5.892777919769287,15.396544456481934,0.9202515482902528
4920,42,0.0004420273762661,,,,,,,,,,
4949,42,,,,,,0.9798896908760072,,,,,
4999,42,,,,,,0.8975369334220886,,,,,
5039,42,,29.223751068115234,5.959557056427002,8.18993854522705,15.074254989624023,,28.37837791442871,6.003544330596924,6.2029242515563965,16.17190933227539,0.944615364074707
5040,43,0.0004383913183119,,,,,,,,,,
5049,43,,,,,,0.8993238210678101,,,,,
5099,43,,,,,,0.8069137334823608,,,,,
5149,43,,,,,,0.9226008653640748,,,,,
5159,43,,29.343969345092773,6.070691585540772,8.29596996307373,14.977307319641112,,27.580860137939453,5.759858131408691,7.377048969268799,14.443952560424805,0.9100785255432128
5160,44,0.0004346607020124,,,,,,,,,,
5199,44,,,,,,1.0379862785339355,,,,,
5249,44,,,,,,0.9060734510421752,,,,,
5279,44,,28.70118522644043,5.804563522338867,7.941415786743164,14.955205917358398,,29.751882553100582,5.16171932220459,7.177669525146484,17.412494659423828,0.9732604026794434
5280,45,0.0004308373318053,,,,,,,,,,
5299,45,,,,,,0.9928656816482544,,,,,
5349,45,,,,,,0.9425204396247864,,,,,
5399,45,,28.919336318969727,5.70273494720459,8.185004234313965,15.031597137451172,0.9773809909820556,27.82454490661621,5.582631587982178,9.06070041656494,13.181214332580566,0.8716957569122314
5400,46,0.0004269231285434,,,,,,,,,,
5449,46,,,,,,0.869368314743042,,,,,
5499,46,,,,,,0.7925470471382141,,,,,
5519,46,,27.735519409179688,5.96690559387207,7.507462024688721,14.261152267456056,,27.580860137939453,5.582631587982178,6.468763828277588,15.529463768005373,0.9001927375793457
5520,47,0.0004229201294947,,,,,,,,,,
5549,47,,,,,,0.9759366512298584,,,,,
5599,47,,,,,,0.8912361264228821,,,,,
5639,47,,27.173614501953125,6.014261245727539,7.141677379608154,14.017675399780272,,28.001771926879883,5.139565944671631,8.019495010375977,14.842711448669434,0.8880305886268616
5640,48,0.0004188303137198,,,,,,,,,,
5649,48,,,,,,1.0004709959030151,,,,,
5699,48,,,,,,0.8658623695373535,,,,,
5749,48,,,,,,0.899544894695282,,,,,
5759,48,,26.78843879699707,6.110584259033203,6.95858907699585,13.71926498413086,,27.02702713012696,5.449711799621582,6.645990371704102,14.93132495880127,0.9009680151939392
5760,49,0.0004146557184867,,,,,,,,,,
5799,49,,,,,,0.8848555088043213,,,,,
5849,49,,,,,,0.8259955644607544,,,,,
5879,49,,25.744949340820312,6.158337593078613,6.251542091369629,13.33506965637207,,26.93841361999512,5.826318264007568,6.623836994171143,14.488258361816406,0.8734200596809387
5880,50,0.0004103984683752,,,,,,,,,,
5899,50,,,,,,0.8227555751800537,,,,,
5949,50,,,,,,0.846161961555481,,,,,
5999,50,,25.777881622314453,5.988898277282715,6.404870510101318,13.384113311767578,0.860324501991272,27.093486785888672,5.649091720581055,7.554275512695312,13.890119552612305,0.869635283946991
6000,51,0.0004060607170686,,,,,,,,,,
6049,51,,,,,,0.7261779308319092,,,,,
6099,51,,,,,,0.773970365524292,,,,,
6119,51,,24.61872673034668,5.652048587799072,6.07835865020752,12.888320922851562,,30.54940223693848,4.364200115203857,10.943730354309082,15.24147129058838,0.9839696288108826
6120,52,0.0004016446182504,,,,,,,,,,
6149,52,,,,,,0.8652790188789368,,,,,
6199,52,,,,,,0.9714688062667848,,,,,
6239,52,,25.1083927154541,5.93919038772583,6.197954654693604,12.971246719360352,,26.20735549926757,5.826318264007568,4.408506870269775,15.972530364990234,0.9006428122520447
6240,53,0.0003971524129156,,,,,,,,,,
6249,53,,,,,,0.7503178119659424,,,,,
6299,53,,,,,,0.8389744758605957,,,,,
6349,53,,,,,,0.8583638072013855,,,,,
6359,53,,24.702098846435547,5.764235496520996,5.959400177001953,12.978463172912598,,27.270713806152344,5.228178977966309,8.79486083984375,13.247673988342283,0.9110633730888368
6360,54,0.0003925863711629,,,,,,,,,,
6399,54,,,,,,0.6798236966133118,,,,,
6449,54,,,,,,0.7860735058784485,,,,,
6479,54,,23.922372817993164,5.910103797912598,5.613016605377197,12.399251937866213,,26.163047790527344,6.025697708129883,4.652193069458008,15.485157012939451,0.8919609785079956
6480,55,0.0003879487921949,,,,,,,,,,
6499,55,,,,,,0.6784789562225342,,,,,
6549,55,,,,,,0.7970333099365234,,,,,
6599,55,,23.377302169799805,5.986534595489502,5.491893291473389,11.898873329162598,0.790108859539032,25.69782829284668,5.183872222900391,6.579530239105225,13.934426307678224,0.8605726957321167
6600,56,0.0003832420043181,,,,,,,,,,
6649,56,,,,,,0.7476174831390381,,,,,
6699,56,,,,,,0.6892649531364441,,,,,
6719,56,,22.973716735839844,6.060272693634033,5.3295722007751465,11.583871841430664,,25.09968948364257,5.671245098114014,5.20602560043335,14.222418785095217,0.851158618927002
6720,57,0.0003784683649428,,,,,,,,,,
6749,57,,,,,,0.7879582643508911,,,,,
6799,57,,,,,,0.6668199300765991,,,,,
6839,57,,22.887619018554688,6.014727115631104,5.377469062805176,11.495423316955566,,27.62516593933105,4.718653202056885,8.927780151367188,13.97873306274414,0.9024953246116638
6840,58,0.0003736302896868,,,,,,,,,,
6849,58,,,,,,0.7088298797607422,,,,,
6899,58,,,,,,0.7392417192459106,,,,,
6949,58,,,,,,0.7075924873352051,,,,,
6959,58,,22.28330421447754,5.908222675323486,5.134477615356445,11.24060344696045,,25.34337615966797,5.338945388793945,6.158617496490479,13.845812797546388,0.8609233498573303
6960,59,0.0003687302232719,,,,,,,,,,
6999,59,,,,,,0.7568542957305908,,,,,
7049,59,,,,,,0.7956029176712036,,,,,
7079,59,,22.600645065307617,6.105205535888672,5.105274200439453,11.390165328979492,,26.916259765625,5.78201150894165,5.560478687286377,15.573770523071287,0.9018869996070862
7080,60,0.0003637706395238,,,,,,,,,,
7099,60,,,,,,0.6579949855804443,,,,,
7149,60,,,,,,0.7616825103759766,,,,,
7199,60,,21.83939743041992,5.864524841308594,4.707324981689453,11.267547607421877,0.6517602205276489,23.74833869934082,5.228178977966309,5.870624542236328,12.649535179138184,0.8286706209182739
7200,61,0.0003587539831642,,,,,,,,,,
7249,61,,,,,,0.6950517296791077,,,,,
7299,61,,,,,,0.7326560020446777,,,,,
7319,61,,21.86790657043457,5.98010778427124,4.780509471893311,11.10728931427002,,21.66592788696289,6.1807708740234375,3.300841808319092,12.18431568145752,0.7727159261703491
7320,62,0.0003536828444339,,,,,,,,,,
7349,62,,,,,,0.7410401105880737,,,,,
7399,62,,,,,,0.6902740001678467,,,,,
7439,62,,21.75389289855957,5.868389129638672,4.940929889678955,10.944573402404783,,22.352680206298828,5.981391429901123,3.8325209617614746,12.53876781463623,0.7857280969619751
7440,63,0.0003485597553662,,,,,,,,,,
7449,63,,,,,,0.6498978734016418,,,,,
7499,63,,,,,,0.6075841188430786,,,,,
7549,63,,,,,,0.7601695656776428,,,,,
7559,63,,21.42414283752441,5.877895355224609,4.878956317901611,10.667291641235352,,27.64731979370117,6.114311218261719,5.272485733032227,16.260522842407227,0.9552633166313172
7560,64,0.0003433872770983,,,,,,,,,,
7599,64,,,,,,0.6901577711105347,,,,,
7649,64,,,,,,0.6706563234329224,,,,,
7679,64,,21.57913589477539,6.1261982917785645,4.851230621337891,10.601707458496094,,25.94151496887207,5.183872222900391,6.645990371704102,14.111652374267578,0.8909878134727478
7680,65,0.0003381680289749,,,,,,,,,,
7699,65,,,,,,0.6384577751159668,,,,,
7749,65,,,,,,0.6454266309738159,,,,,
7799,65,,20.56087684631348,5.9797468185424805,4.499924659729004,10.081204414367676,0.6724260449409485,23.57111167907715,5.405405521392822,4.7629594802856445,13.40274715423584,0.8185133934020996
7800,66,0.0003329046303406,,,,,,,,,,
7849,66,,,,,,0.6586399078369141,,,,,
7899,66,,,,,,0.6764301061630249,,,,,
7919,66,,20.53637886047364,5.974946975708008,4.327732086181641,10.2337007522583,,21.90961456298828,5.405405521392822,4.142667293548584,12.361541748046877,0.7835619449615479
7920,67,0.0003275997296441,,,,,,,,,,
7949,67,,,,,,0.6444881558418274,,,,,
7999,67,,,,,,0.5988826751708984,,,,,
8039,67,,20.16362953186035,5.645926475524902,4.422138214111328,10.095565795898438,,24.34647750854492,5.272485733032227,5.050952434539795,14.02303981781006,0.8082844614982605
8040,68,0.0003222560335416,,,,,,,,,,
8049,68,,,,,,0.6205649375915527,,,,,
8099,68,,,,,,0.6096490621566772,,,,,
8149,68,,,,,,0.6310282349586487,,,,,
8159,68,,20.229961395263672,5.79978609085083,4.449658393859863,9.98051643371582,,23.03943252563477,5.604784965515137,5.073105812072754,12.361541748046877,0.7861422896385193
8160,69,0.0003168761904817,,,,,,,,,,
8199,69,,,,,,0.602708101272583,,,,,
8249,69,,,,,,0.6446136832237244,,,,,
8279,69,,19.498403549194336,5.820768356323242,4.102465152740479,9.575170516967772,,20.51395606994629,5.870624542236328,3.190075397491455,11.453256607055664,0.7334694266319275
8280,70,0.0003114629362244,,,,,,,,,,
8299,70,,,,,,0.6577014923095703,,,,,
8349,70,,,,,,0.7083030939102173,,,,,
8399,70,,19.38047409057617,5.751749038696289,4.268359661102295,9.360365867614746,0.5987792015075684,20.69118309020996,5.272485733032227,4.231280326843262,11.187417030334473,0.7288787364959717
8400,71,0.0003060189774259,,,,,,,,,,
8449,71,,,,,,0.6452741622924805,,,,,
8499,71,,,,,,0.6179550886154175,,,,,
8519,71,,19.23553466796875,5.607553958892822,4.0962395668029785,9.531740188598633,,22.79574584960937,5.516171932220459,5.449711799621582,11.829862594604492,0.7874956130981445
8520,72,0.0003005470498465,,,,,,,,,,
8549,72,,,,,,0.6475858688354492,,,,,
8599,72,,,,,,0.6038259267807007,,,,,
8639,72,,18.7688045501709,5.786429405212402,3.90020751953125,9.08216667175293,,21.533008575439453,6.09215784072876,4.186974048614502,11.253876686096191,0.7526689171791077
8640,73,0.0002950499474536,,,,,,,,,,
8649,73,,,,,,0.6657395958900452,,,,,
8699,73,,,,,,0.556774377822876,,,,,
8749,73,,,,,,0.5660343170166016,,,,,
8759,73,,17.994401931762695,5.801398277282715,3.7274017333984375,8.465600967407227,,21.06778907775879,5.604784965515137,3.65529465675354,11.807709693908691,0.7655889987945557
8760,74,0.0002895304060075,,,,,,,,,,
8799,74,,,,,,0.4841141104698181,,,,,
8849,74,,,,,,0.6133397221565247,,,,,
8879,74,,17.506608963012695,5.686825275421143,3.6489315032958975,8.170852661132812,,23.061586380004883,5.361098766326904,3.7660610675811768,13.934426307678224,0.8241699934005737
8880,75,0.000283991190372,,,,,,,,,,
8899,75,,,,,,0.4736250638961792,,,,,
8949,75,,,,,,0.5727388858795166,,,,,
8999,75,,17.480680465698242,5.732475280761719,3.6314384937286377,8.116766929626465,0.5325083136558533,21.9317684173584,5.582631587982178,4.497119903564453,11.852015495300291,0.7718638777732849
9000,76,0.0002784351236186,,,,,,,,,,
9049,76,,,,,,0.4962396025657654,,,,,
9099,76,,,,,,0.6251548528671265,,,,,
9119,76,,17.476716995239258,5.575301647186279,3.657629251480103,8.243786811828613,,22.19760704040528,5.20602560043335,3.566681385040283,13.42490005493164,0.7902325987815857
9120,77,0.0002728649997152,,,,,,,,,,
9149,77,,,,,,0.5554419755935669,,,,,
9199,77,,,,,,0.5245121717453003,,,,,
9239,77,,16.9923038482666,5.586076736450195,3.5799357891082764,7.826290607452393,,20.80194854736328,5.050952434539795,4.120513916015625,11.63048267364502,0.7645801305770874
9240,78,0.0002672836126293,,,,,,,,,,
9249,78,,,,,,0.5776774883270264,,,,,
9299,78,,,,,,0.5506150722503662,,,,,
9349,78,,,,,,0.5795760750770569,,,,,
9359,78,,17.44463539123535,5.588133811950684,3.724042892456055,8.13245964050293,,20.09304428100586,5.538325309753418,3.256535291671753,11.29818344116211,0.7166549563407898
9360,79,0.0002616937854327,,,,,,,,,,
9399,79,,,,,,0.5270051956176758,,,,,
9449,79,,,,,,0.5546878576278687,,,,,
9479,79,,16.850889205932617,5.474442481994629,3.571723222732544,7.804723739624023,,23.726184844970703,4.8072662353515625,6.490917205810547,12.428001403808594,0.784217357635498
9480,80,0.0002560982829891,,,,,,,,,,
9499,80,,,,,,0.5035326480865479,,,,,
9549,80,,,,,,0.5179221630096436,,,,,
9599,80,,15.91895580291748,5.387362480163574,3.2843406200408936,7.247252941131592,0.561845064163208,21.86530876159668,4.56358003616333,4.497119903564453,12.804608345031738,0.7795721292495728
9600,81,0.0002504999865777,,,,,,,,,,
9649,81,,,,,,0.5303019285202026,,,,,
9699,81,,,,,,0.4552873075008392,,,,,
9719,81,,15.71538543701172,5.221049308776856,3.268998146057129,7.225337982177734,,19.937971115112305,5.228178977966309,3.987594127655029,10.722197532653809,0.7220109105110168
9720,82,0.0002449016901664,,,,,,,,,,
9749,82,,,,,,0.4627600908279419,,,,,
9799,82,,,,,,0.4839067161083221,,,,,
9839,82,,15.679801940917969,5.194965839385986,3.343648910522461,7.1411871910095215,,19.982276916503903,4.918032646179199,3.921134233474731,11.143110275268556,0.7300745844841003
9840,83,0.0002393062313785,,,,,,,,,,
9849,83,,,,,,0.4966561496257782,,,,,
9899,83,,,,,,0.5365832448005676,,,,,
9949,83,,,,,,0.4812618494033813,,,,,
9959,83,,15.07282257080078,5.072822093963623,3.1025006771087646,6.897499084472656,,18.74169158935547,4.607886791229248,3.300841808319092,10.832963943481444,0.6932796239852905
9960,84,0.0002337163896299,,,,,,,,,,
9999,84,,,,,,0.465414822101593,,,,,
10049,84,,,,,,0.4835551977157593,,,,,
10079,84,,14.85234260559082,5.334359645843506,3.0700066089630127,6.447976112365723,,19.450597763061523,5.117412567138672,3.3673017024993896,10.9658842086792,0.7384927868843079
10080,85,0.0002281349879922,,,,,,,,,,
10099,85,,,,,,0.4783568084239959,,,,,
10149,85,,,,,,0.5400445461273193,,,,,
10199,85,,15.2456693649292,5.240312576293945,3.3035261631011963,6.701830863952637,0.4862138330936432,19.73859024047852,5.4940185546875,3.4337615966796875,10.810811042785645,0.7382070422172546
10200,86,0.0002225648640887,,,,,,,,,,
10249,86,,,,,,0.4455677568912506,,,,,
10299,86,,,,,,0.5366100072860718,,,,,
10319,86,,14.556944847106934,5.268580913543701,2.9701881408691406,6.318175792694092,,19.73859024047852,4.984492778778076,3.3673017024993896,11.386796951293944,0.7172858119010925
10320,87,0.0002170087973354,,,,,,,,,,
10349,87,,,,,,0.4536930024623871,,,,,
10399,87,,,,,,0.5018983483314514,,,,,
10439,87,,14.364367485046388,5.315752029418945,2.9538071155548096,6.094808101654053,,20.314577102661133,5.4940185546875,3.322995185852051,11.497563362121582,0.7563416957855225
10440,88,0.0002114695962518,,,,,,,,,,
10449,88,,,,,,0.5158495903015137,,,,,
10499,88,,,,,,0.5898717045783997,,,,,
10549,88,,,,,,0.4816086590290069,,,,,
10559,88,,14.39957046508789,5.332562446594238,3.0117828845977783,6.055225372314453,,19.251218795776367,5.117412567138672,2.791315793991089,11.342490196228027,0.7278171181678772
10560,89,0.0002059500548057,,,,,,,,,,
10599,89,,,,,,0.4748504757881164,,,,,
10649,89,,,,,,0.4342185854911804,,,,,
10679,89,,13.586620330810549,5.289102077484131,2.7763664722442627,5.521152496337891,,19.206911087036133,5.383252143859863,2.74700927734375,11.076650619506836,0.7107784152030945
10680,90,0.0002004529378609,,,,,,,,,,
10699,90,,,,,,0.5037902593612671,,,,,
10749,90,,,,,,0.5219716429710388,,,,,
10799,90,,14.430863380432127,5.362077713012695,3.159501075744629,5.909284591674805,0.4148759543895721,20.115196228027344,4.89587926864624,3.65529465675354,11.5640230178833,0.7395660281181335
10800,91,0.0001949810248333,,,,,,,,,,
10849,91,,,,,,0.5175709128379822,,,,,
10899,91,,,,,,0.5150213241577148,,,,,
10919,91,,13.146821975708008,5.24355411529541,2.7190332412719727,5.184234619140625,,18.4758529663086,5.117412567138672,2.6140894889831543,10.74435043334961,0.6858762502670288
10920,92,0.0001895370660349,,,,,,,,,,
10949,92,,,,,,0.4315816760063171,,,,,
10999,92,,,,,,0.4723202288150787,,,,,
11039,92,,12.932955741882324,5.18033504486084,2.8033783435821533,4.949242115020752,,18.852458953857425,4.87372636795044,2.74700927734375,11.23172378540039,0.7165352702140808
11040,93,0.0001841238117776,,,,,,,,,,
11049,93,,,,,,0.397677481174469,,,,,
11099,93,,,,,,0.4156603813171386,,,,,
11149,93,,,,,,0.4436982274055481,,,,,
11159,93,,12.799933433532717,5.191957473754883,2.704230785369873,4.903745174407959,,19.22906494140625,4.8072662353515625,3.921134233474731,10.500664710998535,0.704279363155365
11160,94,0.0001787439687177,,,,,,,,,,
11199,94,,,,,,0.3845500648021698,,,,,
11249,94,,,,,,0.3767401278018951,,,,,
11279,94,,12.038053512573242,5.0628743171691895,2.4669156074523926,4.508264064788818,,19.273372650146484,4.984492778778076,3.123615503311157,11.165263175964355,0.7226032614707947
11280,95,0.0001734002580633,,,,,,,,,,
11299,95,,,,,,0.4029871225357055,,,,,
11349,95,,,,,,0.4068633019924164,,,,,
11399,95,,12.098217964172363,5.209739208221436,2.502272367477417,4.38620662689209,0.3796118199825287,18.80815315246582,4.984492778778076,3.610988140106201,10.212671279907228,0.7105519771575928
11400,96,0.0001680953719187,,,,,,,,,,
11449,96,,,,,,0.4095881581306457,,,,,
11499,96,,,,,,0.3967868685722351,,,,,
11519,96,,11.680240631103516,4.999517917633057,2.3991620540618896,4.28156042098999,,19.07399177551269,4.7629594802856445,3.610988140106201,10.700044631958008,0.7074339985847473
11520,97,0.0001628319878363,,,,,,,,,,
11549,97,,,,,,0.4114173352718353,,,,,
11599,97,,,,,,0.3714107871055603,,,,,
11639,97,,11.53469944000244,5.11704158782959,2.353232860565185,4.064424514770508,,19.05183792114257,4.8515729904174805,3.212228536605835,10.988037109375,0.7137618064880371
11640,98,0.000157612725161,,,,,,,,,,
11649,98,,,,,,0.3995323777198791,,,,,
11699,98,,,,,,0.3160582184791565,,,,,
11749,98,,,,,,0.3732162714004516,,,,,
11759,98,,11.438565254211426,5.072024822235107,2.302586317062378,4.063954830169678,,17.567567825317383,5.073105812072754,2.5697829723358154,9.924678802490234,0.6724890470504761
11760,99,0.000152440261445,,,,,,,,,,
11799,99,,,,,,0.4027915596961975,,,,,
11849,99,,,,,,0.3486924171447754,,,,,
11879,99,,10.930562019348145,4.902324676513672,2.250450134277344,3.77778697013855,,18.98537826538086,4.918032646179199,3.1014621257781982,10.9658842086792,0.7079640626907349
11880,100,0.0001473171578254,,,,,,,,,,
11899,100,,,,,,0.3169972896575928,,,,,
11949,100,,,,,,0.3264148533344269,,,,,
11999,100,,10.652338027954102,4.854541778564453,2.1603121757507324,3.637483835220337,0.3632705509662628,17.301727294921875,5.20602560043335,2.1488702297210693,9.946831703186035,0.6746653318405151
12000,101,0.0001422460045432,,,,,,,,,,
12049,101,,,,,,0.4392800033092499,,,,,
12099,101,,,,,,0.4144930243492126,,,,,
12119,101,,10.886731147766112,5.0458083152771,2.3509504795074463,3.48997163772583,,19.73859024047852,5.028799057006836,3.588834762573242,11.120957374572754,0.745649516582489
12120,102,0.0001372293772874,,,,,,,,,,
12149,102,,,,,,0.3422133326530456,,,,,
12199,102,,,,,,0.4000079035758972,,,,,
12239,102,,10.78965187072754,5.19634485244751,2.2494521141052246,3.3438546657562256,,18.409393310546875,4.8072662353515625,3.5223748683929443,10.079751968383787,0.7049193382263184
12240,103,0.0001322697644354,,,,,,,,,,
12249,103,,,,,,0.2950375080108642,,,,,
12299,103,,,,,,0.4285816550254822,,,,,
12349,103,,,,,,0.3588316440582275,,,,,
12359,103,,10.107117652893066,4.965214729309082,2.092650890350342,3.0492517948150635,,17.478954315185547,4.87372636795044,2.9020824432373047,9.70314598083496,0.692045271396637
12360,104,0.0001273696980206,,,,,,,,,,
12399,104,,,,,,0.3480327129364013,,,,,
12449,104,,,,,,0.3492203652858734,,,,,
12479,104,,9.752946853637695,4.777542591094971,2.0129709243774414,2.9624338150024414,,18.32077980041504,4.696499824523926,3.3451483249664307,10.279131889343262,0.701178252696991
12480,105,0.0001225316373165,,,,,,,,,,
12499,105,,,,,,0.3274146914482116,,,,,
12549,105,,,,,,0.299302339553833,,,,,
12599,105,,9.676395416259766,4.654660701751709,2.116883993148804,2.904850721359253,0.4390026032924652,17.190961837768555,4.474967002868652,2.6362428665161133,10.079751968383787,0.6981460452079773
12600,106,0.0001177579979412,,,,,,,,,,
12649,106,,,,,,0.3838801383972168,,,,,
12699,106,,,,,,0.427753746509552,,,,,
12719,106,,9.347928047180176,4.570831298828125,1.9292649030685425,2.84783148765564,,17.412494659423828,4.630039691925049,3.167922019958496,9.614532470703123,0.6896368861198425
12720,107,0.0001130512027884,,,,,,,,,,
12749,107,,,,,,0.3750776648521423,,,,,
12799,107,,,,,,0.3605023920536041,,,,,
12839,107,,9.088664054870604,4.680168151855469,1.9003320932388303,2.508163928985596,,17.855560302734375,4.607886791229248,3.07930874824524,10.168365478515623,0.6978911757469177
12840,108,0.0001084136165445,,,,,,,,,,
12849,108,,,,,,0.3474203944206238,,,,,
12899,108,,,,,,0.2898097038269043,,,,,
12949,108,,,,,,0.3443835377693176,,,,,
12959,108,,8.85410213470459,4.584963798522949,1.8180569410324097,2.4510812759399414,,17.89986801147461,4.474967002868652,3.788214445114136,9.636686325073242,0.7043402791023254
12960,109,0.0001038475820678,,,,,,,,,,
12999,109,,,,,,0.3211167454719543,,,,,
13049,109,,,,,,0.3037307262420654,,,,,
13079,109,,8.985849380493164,4.750270843505859,1.90093195438385,2.334646463394165,,17.168807983398438,4.630039691925049,3.05715560913086,9.481613159179688,0.7071237564086914
13080,110,9.935538400895894e-05,,,,,,,,,,
13099,110,,,,,,0.3010094165802002,,,,,
13149,110,,,,,,0.366071879863739,,,,,
13199,110,,8.670257568359375,4.57344388961792,1.8775914907455444,2.2192223072052,0.3160945177078247,17.611873626708984,4.585733413696289,2.835622549057007,10.190518379211426,0.7054518461227417
13200,111,9.49392924667336e-05,,,,,,,,,,
13249,111,,,,,,0.2865359485149383,,,,,
13299,111,,,,,,0.3318468332290649,,,,,
13319,111,,8.2878999710083,4.467363357543945,1.7715643644332886,2.0489721298217773,,17.5897216796875,4.607886791229248,3.05715560913086,9.924678802490234,0.6986561417579651
13320,112,9.060153388418256e-05,,,,,,,,,,
13349,112,,,,,,0.3452845811843872,,,,,
13399,112,,,,,,0.3318198025226593,,,,,
13439,112,,8.166047096252441,4.509156227111816,1.7403277158737185,1.9165633916854856,,16.79220199584961,4.497119903564453,2.813469171524048,9.481613159179688,0.6948186755180359
13440,113,8.63442910485901e-05,,,,,,,,,,
13449,113,,,,,,0.2471427172422409,,,,,
13499,113,,,,,,0.2750868797302246,,,,,
13549,113,,,,,,0.2978445589542389,,,,,
13559,113,,8.079681396484375,4.569170951843262,1.6643952131271362,1.846115708351136,,17.27957534790039,4.164820671081543,3.05715560913086,10.057598114013672,0.7062674760818481
13560,114,8.216969581553712e-05,,,,,,,,,,
13599,114,,,,,,0.3368261456489563,,,,,
13649,114,,,,,,0.2805314660072326,,,,,
13679,114,,7.793011665344238,4.379873275756836,1.6158088445663452,1.7973294258117676,,17.035888671875,4.297740459442139,3.322995185852051,9.415152549743652,0.6941233277320862
13680,115,7.807986548868939e-05,,,,,,,,,,
13699,115,,,,,,0.2923042476177215,,,,,
13749,115,,,,,,0.2412693053483963,,,,,
13799,115,,7.39512825012207,4.235964775085449,1.5562922954559326,1.6028714179992676,0.290018618106842,16.79220199584961,4.364200115203857,2.769162654876709,9.658839225769045,0.68668133020401
13800,116,7.407685916405171e-05,,,,,,,,,,
13849,116,,,,,,0.2734740376472473,,,,,
13899,116,,,,,,0.2693216502666473,,,,,
13919,116,,7.409548282623291,4.242874622344971,1.5730150938034058,1.593658447265625,,16.83650779724121,4.408506870269775,2.724855899810791,9.70314598083496,0.7068854570388794
13920,117,7.01626850059256e-05,,,,,,,,,,
13949,117,,,,,,0.212224006652832,,,,,
13999,117,,,,,,0.2561029195785522,,,,,
14039,117,,7.32102632522583,4.189330101013184,1.554859638214111,1.5768364667892456,,16.393442153930664,4.56358003616333,2.591936111450196,9.237926483154297,0.6806425452232361
14040,118,6.633930752286687e-05,,,,,,,,,,
14049,118,,,,,,0.2272490561008453,,,,,
14099,118,,,,,,0.1943940669298172,,,,,
14149,118,,,,,,0.2397859692573547,,,,,
14159,118,,7.1596293449401855,4.216958522796631,1.517336130142212,1.4253346920013428,,16.37129020690918,4.142667293548584,3.0128488540649414,9.215773582458496,0.6920777559280396
14160,119,6.260866939555854e-05,,,,,,,,,,
14199,119,,,,,,0.2592447996139526,,,,,
14249,119,,,,,,0.3432066738605499,,,,,
14279,119,,7.185117721557617,4.269517421722412,1.5947054624557495,1.3208949565887451,,16.23836898803711,4.430660247802734,2.6140894889831543,9.19361972808838,0.6691069602966309
14280,120,5.897263690712862e-05,,,,,,,,,,
14299,120,,,,,,0.2315670549869537,,,,,
14349,120,,,,,,0.2909693419933319,,,,,
14399,120,,6.878350734710693,4.229544639587402,1.425007939338684,1.2237979173660278,0.2946754693984985,16.149755477905273,4.27558708190918,2.924235820770264,8.949934005737305,0.6741167902946472
14400,121,5.543304359889589e-05,,,,,,,,,,
14449,121,,,,,,0.2082109153270721,,,,,
14499,121,,,,,,0.222224935889244,,,,,
14519,121,,6.734289646148682,4.126180171966553,1.4148476123809814,1.1932616233825684,,17.190961837768555,4.297740459442139,3.610988140106201,9.282233238220217,0.7007036805152893
14520,122,5.199167571845464e-05,,,,,,,,,,
14549,122,,,,,,0.2808315753936767,,,,,
14599,122,,,,,,0.2334790676832199,,,,,
14639,122,,6.892611980438232,4.202744960784912,1.4770865440368652,1.2127803564071655,,16.260522842407227,4.186974048614502,3.190075397491455,8.88347339630127,0.6777651906013489
14640,123,4.865026130573824e-05,,,,,,,,,,
14649,123,,,,,,0.2888544797897339,,,,,
14699,123,,,,,,0.2827578783035278,,,,,
14749,123,,,,,,0.2435137927532196,,,,,
14759,123,,6.545763969421387,4.203676700592041,1.2891091108322144,1.0529783964157104,,16.459901809692383,4.342046737670898,2.9020824432373047,9.215773582458496,0.6871158480644226
14760,124,4.541048110695556e-05,,,,,,,,,,
14799,124,,,,,,0.2767488062381744,,,,,
14849,124,,,,,,0.2654828429222107,,,,,
14879,124,,6.542904376983643,4.184543609619141,1.3256325721740725,1.0327283143997192,,16.747896194458008,3.9654407501220703,3.3894550800323486,9.392999649047852,0.6941674947738647
14880,125,4.227397221256979e-05,,,,,,,,,,
14899,125,,,,,,0.2306207716464996,,,,,
14949,125,,,,,,0.2752254009246826,,,,,
14999,125,,6.471426963806152,4.109081745147705,1.3875178098678589,0.974827229976654,0.2554304301738739,16.902969360351562,4.253433704376221,3.0350022315979004,9.614532470703123,0.6976088881492615
15000,126,3.924231350538321e-05,,,,,,,,,,
15049,126,,,,,,0.2701178193092346,,,,,
15099,126,,,,,,0.2203269600868225,,,,,
15119,126,,6.395565986633301,4.221322059631348,1.284089207649231,0.8901544213294983,,17.013734817504883,4.009747505187988,3.3894550800323486,9.614532470703123,0.7048607468605042
15120,127,3.631702566053718e-05,,,,,,,,,,
15149,127,,,,,,0.2999711632728576,,,,,
15199,127,,,,,,0.2498518526554107,,,,,
15239,127,,6.220405101776123,4.111606597900391,1.258121371269226,0.8506772518157959,,15.994683265686035,4.098360538482666,2.702702760696411,9.19361972808838,0.6692269444465637
15240,128,3.349958569742739e-05,,,,,,,,,,
15249,128,,,,,,0.2721725702285766,,,,,
15299,128,,,,,,0.2226254791021347,,,,,
15349,128,,,,,,0.2679161131381988,,,,,
15359,128,,6.114761829376221,4.0746750831604,1.2592450380325315,0.7808418869972229,,16.4820556640625,4.031900882720947,3.0350022315979004,9.415152549743652,0.6850229501724243
15360,129,3.079141606576741e-05,,,,,,,,,,
15399,129,,,,,,0.2092785835266113,,,,,
15449,129,,,,,,0.2813619971275329,,,,,
15479,129,,5.832210540771484,3.973382472991944,1.110897183418274,0.7479308247566223,,15.684536933898926,3.921134233474731,2.9020824432373047,8.861320495605469,0.678985595703125
15480,130,2.819387191266287e-05,,,,,,,,,,
15499,130,,,,,,0.2279107570648193,,,,,
15549,130,,,,,,0.2076269686222076,,,,,
15599,130,,5.845643997192383,4.010768890380859,1.1625016927719116,0.672373354434967,0.2623818814754486,15.972530364990234,3.788214445114136,2.924235820770264,9.260079383850098,0.6778082251548767
15600,131,2.5708268367452547e-05,,,,,,,,,,
15649,131,,,,,,0.296208918094635,,,,,
15699,131,,,,,,0.2620891034603119,,,,,
15719,131,,5.87993049621582,4.069137096405029,1.1792808771133425,0.631512463092804,,15.81745719909668,3.788214445114136,3.145768642425537,8.88347339630127,0.6772430539131165
15720,132,2.3335851437877864e-05,,,,,,,,,,
15749,132,,,,,,0.2672770917415619,,,,,
15799,132,,,,,,0.2447608560323715,,,,,
15839,132,,5.838560581207275,3.976011514663696,1.196663737297058,0.6658854484558105,,16.504209518432617,3.8546743392944336,3.190075397491455,9.45945930480957,0.6851018071174622
15840,133,2.107782165694516e-05,,,,,,,,,,
15849,133,,,,,,0.2309699207544326,,,,,
15899,133,,,,,,0.2493550330400467,,,,,
15949,133,,,,,,0.1988188624382019,,,,,
15959,133,,5.746809482574463,3.9310107231140137,1.2086926698684692,0.6071059107780457,,16.149755477905273,3.921134233474731,2.9020824432373047,9.326539993286133,0.6759925484657288
15960,134,1.893531043606345e-05,,,,,,,,,,
15999,134,,,,,,0.2814009487628937,,,,,
16049,134,,,,,,0.262468159198761,,,,,
16079,134,,5.70108699798584,3.861495971679688,1.1569409370422363,0.6826499700546265,,16.260522842407227,3.8768277168273926,3.278688430786133,9.105006217956545,0.6795934438705444
16080,135,1.6909400073927827e-05,,,,,,,,,,
16099,135,,,,,,0.2566560506820678,,,,,
16149,135,,,,,,0.1893773674964904,,,,,
16199,135,,5.650115489959717,3.895584106445313,1.1222926378250122,0.6322386264801025,0.2356510013341903,16.304828643798828,3.810367822647095,3.256535291671753,9.237926483154297,0.684191882610321
16200,136,1.500110920460429e-05,,,,,,,,,,
16249,136,,,,,,0.2541468441486358,,,,,
16299,136,,,,,,0.1864733099937439,,,,,
16319,136,,5.609859943389893,3.9167568683624254,1.1145689487457275,0.578533947467804,,16.17190933227539,3.810367822647095,3.190075397491455,9.171466827392578,0.6890386343002319
16320,137,1.321139916399261e-05,,,,,,,,,,
16349,137,,,,,,0.2354803383350372,,,,,
16399,137,,,,,,0.2086974382400512,,,,,
16439,137,,5.608249664306641,3.890481948852539,1.1442594528198242,0.5735083222389221,,15.994683265686035,3.8325209617614746,3.0128488540649414,9.14931297302246,0.6781129837036133
16440,138,1.1541171261342242e-05,,,,,,,,,,
16449,138,,,,,,0.2253055572509765,,,,,
16499,138,,,,,,0.1972226798534393,,,,,
16549,138,,,,,,0.1747331917285919,,,,,
16559,138,,5.506289958953857,3.838592052459717,1.1246304512023926,0.5430672764778137,,15.795303344726562,3.810367822647095,3.0128488540649414,8.972086906433105,0.6787295341491699
16560,139,9.991265869757626e-06,,,,,,,,,,
16599,139,,,,,,0.2446733713150024,,,,,
16649,139,,,,,,0.1568023860454559,,,,,
16679,139,,5.370977878570557,3.796630620956421,1.064269781112671,0.5100774765014648,,15.728843688964844,3.810367822647095,3.123615503311157,8.79486083984375,0.6750454306602478
16680,140,8.562464245187584e-06,,,,,,,,,,
16699,140,,,,,,0.2190349251031875,,,,,
16749,140,,,,,,0.2216296046972274,,,,,
16799,140,,5.343469619750977,3.792847871780396,1.0607349872589111,0.4898866415023803,0.2398451715707779,15.928223609924316,3.9654407501220703,3.234381914138794,8.728400230407715,0.6742386817932129
16800,141,7.255485797941219e-06,,,,,,,,,,
16849,141,,,,,,0.2224590629339218,,,,,
16899,141,,,,,,0.1625025421380996,,,,,
16919,141,,5.229045391082764,3.704822540283203,1.0532242059707642,0.4709985852241516,,15.795303344726562,3.987594127655029,3.212228536605835,8.595480918884277,0.6726430654525757
16920,142,6.070988092687912e-06,,,,,,,,,,
16949,142,,,,,,0.2251975238323211,,,,,
16999,142,,,,,,0.201788067817688,,,,,
17039,142,,5.413767337799072,3.80215072631836,1.0698275566101074,0.5417892932891846,,15.81745719909668,3.8768277168273926,3.145768642425537,8.79486083984375,0.670337438583374
17040,143,5.009567757952027e-06,,,,,,,,,,
17049,143,,,,,,0.2029376626014709,,,,,
17099,143,,,,,,0.2278984785079956,,,,,
17149,143,,,,,,0.2030194997787475,,,,,
17159,143,,5.3076276779174805,3.815932512283325,1.0472140312194824,0.4444811344146728,,15.83961009979248,3.921134233474731,3.0128488540649414,8.905627250671387,0.670194685459137
17160,144,4.071759121870855e-06,,,,,,,,,,
17199,144,,,,,,0.2051244974136352,,,,,
17249,144,,,,,,0.2346647530794143,,,,,
17279,144,,5.300533771514893,3.804415225982666,1.0590035915374756,0.4371147751808166,,15.86176300048828,3.8546743392944336,3.278688430786133,8.728400230407715,0.6723760962486267
17280,145,3.2580344395682914e-06,,,,,,,,,,
17299,145,,,,,,0.261066734790802,,,,,
17349,145,,,,,,0.248078316450119,,,,,
17399,145,,5.319645881652832,3.8203606605529785,1.0389182567596436,0.460367202758789,0.2375711947679519,15.972530364990234,3.8546743392944336,3.145768642425537,8.972086906433105,0.6704053282737732
17400,146,2.568803665781161e-06,,,,,,,,,,
17449,146,,,,,,0.2166817486286163,,,,,
17499,146,,,,,,0.1767634749412536,,,,,
17519,146,,5.334359645843506,3.914155244827272,0.998130202293396,0.4220743477344513,,15.9060697555542,3.9432876110076895,3.05715560913086,8.905627250671387,0.6690137386322021
17520,147,2.004413545364514e-06,,,,,,,,,,
17549,147,,,,,,0.2412984669208526,,,,,
17599,147,,,,,,0.2452211827039718,,,,,
17639,147,,5.243739604949951,3.791351795196533,1.0435165166854858,0.4088712632656097,,15.750996589660645,3.810367822647095,3.123615503311157,8.81701374053955,0.6669217348098755
17640,148,1.5651486364731682e-06,,,,,,,,,,
17649,148,,,,,,0.1967207342386245,,,,,
17699,148,,,,,,0.2137120366096496,,,,,
17749,148,,,,,,0.2235660254955291,,,,,
17759,148,,5.286052703857422,3.8447773456573486,1.0227961540222168,0.4184791445732116,,15.773150444030762,3.8768277168273926,3.0350022315979004,8.861320495605469,0.66970294713974
17760,149,1.251229946319654e-06,,,,,,,,,,
17799,149,,,,,,0.2092792987823486,,,,,
17849,149,,,,,,0.2143940329551696,,,,,
17879,149,,5.23953104019165,3.8019306659698486,1.0217430591583252,0.4158576726913452,,15.83961009979248,3.8325209617614746,3.167922019958496,8.839166641235352,0.6688610911369324
17880,150,1.0628153859215672e-06,,,,,,,,,,
17899,150,,,,,,0.1802863925695419,,,,,
17949,150,,,,,,0.1878861188888549,,,,,
17999,150,,5.228865623474121,3.795454263687134,1.0424810647964478,0.3909304141998291,0.1833879202604293,15.83961009979248,3.8546743392944336,3.167922019958496,8.81701374053955,0.6668334007263184
18000,151,,,,,,,15.684536933898926,3.921134233474731,2.9020824432373047,8.861320495605469,0.678985595703125
