step,epoch,hp_metric,lr-Adam,train/CER,train/DER,train/IER,train/SER,train/loss,train/lr,val/CER,val/DER,val/IER,val/SER,val/loss
0,,-1.0,9.99999993922529e-09,,,,,,,,,,,
49,0.0,,,,,,,144.14678955078125,,,,,,
99,0.0,,,,,,,146.2020263671875,,,,,,
149,0.0,,,,,,,174.41796875,,,,,,
199,0.0,,,,,,,136.91259765625,,,,,,
249,0.0,,,,,,,190.01123046875,,,,,,
299,0.0,,,,,,,146.87008666992188,,,,,,
349,0.0,,,,,,,132.2588653564453,,,,,,
399,0.0,,,,,,,160.89828491210938,,,,,,
449,0.0,,,,,,,130.46673583984375,,,,,,
479,0.0,,,0.0,0.0,0.0,0.0,,9.99999993922529e-09,1279.8404541015625,1217.390380859375,0.022153301164507866,62.428001403808594,133.19046020507812
480,,,5.564444563788129e-06,,,,,,,,,,,
499,1.0,,,,,,,157.44729614257812,,,,,,
549,1.0,,,,,,,153.38851928710938,,,,,,
599,1.0,,,,,,,97.6962661743164,,,,,,
649,1.0,,,,,,,122.49667358398438,,,,,,
699,1.0,,,,,,,96.18318176269531,,,,,,
749,1.0,,,,,,,97.9423599243164,,,,,,
799,1.0,,,,,,,63.648338317871094,,,,,,
849,1.0,,,,,,,57.211517333984375,,,,,,
899,1.0,,,,,,,64.56063079833984,,,,,,
949,1.0,,,,,,,71.2071533203125,,,,,,
959,1.0,,,0.0,0.0,0.0,0.0,,5.564444563788129e-06,100.0,0.0,100.0,0.0,43.934791564941406
960,,,1.1118889233330265e-05,,,,,,,,,,,
999,2.0,,,,,,,44.502769470214844,,,,,,
1049,2.0,,,,,,,32.12500762939453,,,,,,
1099,2.0,,,,,,,18.698625564575195,,,,,,
1149,2.0,,,,,,,15.977880477905273,,,,,,
1199,2.0,,,,,,,9.508625030517578,,,,,,
1249,2.0,,,,,,,6.9991254806518555,,,,,,
1299,2.0,,,,,,,5.041199684143066,,,,,,
1349,2.0,,,,,,,4.239386558532715,,,,,,
1399,2.0,,,,,,,3.6426124572753906,,,,,,
1439,2.0,,,0.0,0.0,0.0,0.0,,1.1118889233330265e-05,100.0,0.0,100.0,0.0,3.4951019287109375
1440,,,1.667333344812505e-05,,,,,,,,,,,
1449,3.0,,,,,,,3.4862723350524902,,,,,,
1499,3.0,,,,,,,3.2876648902893066,,,,,,
1549,3.0,,,,,,,3.2568912506103516,,,,,,
1599,3.0,,,,,,,3.2722856998443604,,,,,,
1649,3.0,,,,,,,3.3059067726135254,,,,,,
1699,3.0,,,,,,,3.621325969696045,,,,,,
1749,3.0,,,,,,,3.381805181503296,,,,,,
1799,3.0,,,,,,,3.13443922996521,,,,,,
1849,3.0,,,,,,,3.317348003387451,,,,,,
1899,3.0,,,,,,,3.3460984230041504,,,,,,
1919,3.0,,,0.0,0.0,0.0,0.0,,1.667333344812505e-05,100.0,0.0,100.0,0.0,3.217545986175537
1920,,,2.2227777662919834e-05,,,,,,,,,,,
1949,4.0,,,,,,,3.1951072216033936,,,,,,
1999,4.0,,,,,,,3.267608880996704,,,,,,
2049,4.0,,,,,,,3.148115396499634,,,,,,
2099,4.0,,,,,,,3.1809897422790527,,,,,,
2149,4.0,,,,,,,3.1238396167755127,,,,,,
2199,4.0,,,,,,,3.160109043121338,,,,,,
2249,4.0,,,,,,,3.112255573272705,,,,,,
2299,4.0,,,,,,,3.106459856033325,,,,,,
2349,4.0,,,,,,,3.1782374382019043,,,,,,
2399,4.0,,,0.0,0.0,0.0,0.0,3.380474805831909,2.2227777662919834e-05,100.0,0.0,100.0,0.0,3.0938940048217773
2400,,,2.778222187771462e-05,,,,,,,,,,,
2449,5.0,,,,,,,3.0031871795654297,,,,,,
2499,5.0,,,,,,,3.1765241622924805,,,,,,
2549,5.0,,,,,,,3.1121668815612793,,,,,,
2599,5.0,,,,,,,3.111192226409912,,,,,,
2649,5.0,,,,,,,3.062037467956543,,,,,,
2699,5.0,,,,,,,3.087106704711914,,,,,,
2749,5.0,,,,,,,2.992891788482666,,,,,,
2799,5.0,,,,,,,3.019665241241455,,,,,,
2849,5.0,,,,,,,2.967233657836914,,,,,,
2879,5.0,,,0.0,0.0,0.0,0.0,,2.778222187771462e-05,99.2689437866211,0.0,99.24678802490234,0.022153301164507866,2.9241580963134766
2880,,,3.3336666092509404e-05,,,,,,,,,,,
2899,6.0,,,,,,,2.8988757133483887,,,,,,
2949,6.0,,,,,,,3.055105209350586,,,,,,
2999,6.0,,,,,,,2.954646110534668,,,,,,
3049,6.0,,,,,,,3.2005534172058105,,,,,,
3099,6.0,,,,,,,2.891223907470703,,,,,,
3149,6.0,,,,,,,3.309743881225586,,,,,,
3199,6.0,,,,,,,2.815519332885742,,,,,,
3249,6.0,,,,,,,3.002413034439087,,,,,,
3299,6.0,,,,,,,2.7340009212493896,,,,,,
3349,6.0,,,,,,,2.898653984069824,,,,,,
3359,6.0,,,0.0,0.0,0.0,0.0,,3.3336666092509404e-05,97.03145599365234,0.0,96.92069244384766,0.11076650768518448,2.780222177505493
3360,,,3.889111030730419e-05,,,,,,,,,,,
3399,7.0,,,,,,,2.7300758361816406,,,,,,
3449,7.0,,,,,,,2.921008825302124,,,,,,
3499,7.0,,,,,,,2.7129104137420654,,,,,,
3549,7.0,,,,,,,2.5798983573913574,,,,,,
3599,7.0,,,,,,,2.750161647796631,,,,,,
3649,7.0,,,,,,,2.375328779220581,,,,,,
3699,7.0,,,,,,,2.6085262298583984,,,,,,
3749,7.0,,,,,,,2.4218807220458984,,,,,,
3799,7.0,,,,,,,2.359671115875244,,,,,,
3839,7.0,,,0.0,0.0,0.0,0.0,,3.889111030730419e-05,74.10279083251953,0.06645990163087845,59.924678802490234,14.111652374267578,2.336578130722046
3840,,,4.4445554522098973e-05,,,,,,,,,,,
3849,8.0,,,,,,,2.412782669067383,,,,,,
3899,8.0,,,,,,,2.2835586071014404,,,,,,
3949,8.0,,,,,,,2.294560670852661,,,,,,
3999,8.0,,,,,,,2.1476731300354004,,,,,,
4049,8.0,,,,,,,2.005614757537842,,,,,,
4099,8.0,,,,,,,2.149120569229126,,,,,,
4149,8.0,,,,,,,2.208146572113037,,,,,,
4199,8.0,,,,,,,1.9512622356414795,,,,,,
4249,8.0,,,,,,,1.9420790672302246,,,,,,
4299,8.0,,,,,,,2.0074875354766846,,,,,,
4319,8.0,,,0.0,0.0,0.0,0.0,,4.4445554522098973e-05,57.487815856933594,1.6393442153930664,21.66592788696289,34.18254470825195,1.905502438545227
4320,,,4.999999873689376e-05,,,,,,,,,,,
4349,9.0,,,,,,,2.0550317764282227,,,,,,
4399,9.0,,,,,,,1.8148493766784668,,,,,,
4449,9.0,,,,,,,1.9432001113891602,,,,,,
4499,9.0,,,,,,,1.887589693069458,,,,,,
4549,9.0,,,,,,,1.922175407409668,,,,,,
4599,9.0,,,,,,,2.09843373298645,,,,,,
4649,9.0,,,,,,,2.0352656841278076,,,,,,
4699,9.0,,,,,,,1.8275213241577148,,,,,,
4749,9.0,,,,,,,1.8911887407302856,,,,,,
4799,9.0,,,0.0,0.0,0.0,0.0,1.6034753322601318,4.999999873689376e-05,47.93974304199219,3.3673017024993896,9.370845794677734,35.201595306396484,1.6271666288375854
4800,,,4.999999873689376e-05,,,,,,,,,,,
4849,10.0,,,,,,,1.6746646165847778,,,,,,
4899,10.0,,,,,,,1.7818868160247803,,,,,,
4949,10.0,,,,,,,1.5899512767791748,,,,,,
4999,10.0,,,,,,,1.4714961051940918,,,,,,
5049,10.0,,,,,,,1.6519681215286255,,,,,,
5099,10.0,,,,,,,1.8370747566223145,,,,,,
5149,10.0,,,,,,,1.7614879608154297,,,,,,
5199,10.0,,,,,,,1.5813558101654053,,,,,,
5249,10.0,,,,,,,1.6620997190475464,,,,,,
5279,10.0,,,0.0,0.0,0.0,0.0,,4.999999873689376e-05,43.132476806640625,2.348249912261963,9.636686325073242,31.147541046142578,1.3880257606506348
5280,,,4.999383236281574e-05,,,,,,,,,,,
5299,11.0,,,,,,,1.769498586654663,,,,,,
5349,11.0,,,,,,,1.7623908519744873,,,,,,
5399,11.0,,,,,,,1.7018239498138428,,,,,,
5449,11.0,,,,,,,1.8067741394042969,,,,,,
5499,11.0,,,,,,,1.7817941904067993,,,,,,
5549,11.0,,,,,,,1.5267413854599,,,,,,
5599,11.0,,,,,,,1.4960532188415527,,,,,,
5649,11.0,,,,,,,1.6115148067474365,,,,,,
5699,11.0,,,,,,,1.669837474822998,,,,,,
5749,11.0,,,,,,,2.0974109172821045,,,,,,
5759,11.0,,,0.0,0.0,0.0,0.0,,4.999383236281574e-05,41.29375457763672,2.303943395614624,11.807709693908691,27.182100296020508,1.2948449850082397
5760,,,4.997532960260287e-05,,,,,,,,,,,
5799,12.0,,,,,,,1.4788044691085815,,,,,,
5849,12.0,,,,,,,1.3993645906448364,,,,,,
5899,12.0,,,,,,,1.7420693635940552,,,,,,
5949,12.0,,,,,,,1.516115427017212,,,,,,
5999,12.0,,,,,,,1.6390600204467773,,,,,,
6049,12.0,,,,,,,1.7508509159088135,,,,,,
6099,12.0,,,,,,,1.5403811931610107,,,,,,
6149,12.0,,,,,,,1.3755061626434326,,,,,,
6199,12.0,,,,,,,1.9943958520889282,,,,,,
6239,12.0,,,0.0,0.0,0.0,0.0,,4.997532960260287e-05,38.679664611816406,3.588834762573242,7.90872859954834,27.182100296020508,1.2265510559082031
6240,,,4.994450500817038e-05,,,,,,,,,,,
6249,13.0,,,,,,,1.6372251510620117,,,,,,
6299,13.0,,,,,,,1.3940470218658447,,,,,,
6349,13.0,,,,,,,1.3489468097686768,,,,,,
6399,13.0,,,,,,,1.423417091369629,,,,,,
6449,13.0,,,,,,,1.3658431768417358,,,,,,
6499,13.0,,,,,,,1.4941662549972534,,,,,,
6549,13.0,,,,,,,1.342231035232544,,,,,,
6599,13.0,,,,,,,1.5538396835327148,,,,,,
6649,13.0,,,,,,,1.3669781684875488,,,,,,
6699,13.0,,,,,,,1.6631227731704712,,,,,,
6719,13.0,,,0.0,0.0,0.0,0.0,,4.994450500817038e-05,35.06867599487305,4.541426658630371,5.028799057006836,25.498449325561523,1.1283836364746094
6720,,,4.9901369493454695e-05,,,,,,,,,,,
6749,14.0,,,,,,,1.4209153652191162,,,,,,
6799,14.0,,,,,,,1.305108666419983,,,,,,
6849,14.0,,,,,,,1.4394725561141968,,,,,,
6899,14.0,,,,,,,1.7219353914260864,,,,,,
6949,14.0,,,,,,,1.244636058807373,,,,,,
6999,14.0,,,,,,,1.3676400184631348,,,,,,
7049,14.0,,,,,,,1.3239879608154297,,,,,,
7099,14.0,,,,,,,1.3114128112792969,,,,,,
7149,14.0,,,,,,,1.6798745393753052,,,,,,
7199,14.0,,,0.0,0.0,0.0,0.0,1.166853904724121,4.9901369493454695e-05,34.84714126586914,3.7882144451141357,6.402304172515869,24.65662384033203,1.1181265115737915
7200,,,4.984594852430746e-05,,,,,,,,,,,
7249,15.0,,,,,,,1.4115023612976074,,,,,,
7299,15.0,,,,,,,1.4430913925170898,,,,,,
7349,15.0,,,,,,,1.3886460065841675,,,,,,
7399,15.0,,,,,,,1.3680710792541504,,,,,,
7449,15.0,,,,,,,1.420924425125122,,,,,,
7499,15.0,,,,,,,1.3015727996826172,,,,,,
7549,15.0,,,,,,,1.3884928226470947,,,,,,
7599,15.0,,,,,,,0.9965675473213196,,,,,,
7649,15.0,,,,,,,1.1430737972259521,,,,,,
7679,15.0,,,0.0,0.0,0.0,0.0,,4.984594852430746e-05,32.56535339355469,4.696499824523926,4.940186023712158,22.928667068481445,1.0418577194213867
7680,,,4.9778267566580325e-05,,,,,,,,,,,
7699,16.0,,,,,,,1.4693547487258911,,,,,,
7749,16.0,,,,,,,1.3235636949539185,,,,,,
7799,16.0,,,,,,,1.3303967714309692,,,,,,
7849,16.0,,,,,,,1.2639912366867065,,,,,,
7899,16.0,,,,,,,1.0830326080322266,,,,,,
7949,16.0,,,,,,,1.5198252201080322,,,,,,
7999,16.0,,,,,,,1.4203786849975586,,,,,,
8049,16.0,,,,,,,1.3297902345657349,,,,,,
8099,16.0,,,,,,,1.2895479202270508,,,,,,
8149,16.0,,,,,,,1.1341640949249268,,,,,,
8159,16.0,,,0.0,0.0,0.0,0.0,,4.9778267566580325e-05,30.948162078857422,4.120513916015625,5.250332355499268,21.577314376831055,0.9824192523956299
8160,,,4.969836300006136e-05,,,,,,,,,,,
8199,17.0,,,,,,,1.1676470041275024,,,,,,
8249,17.0,,,,,,,1.095433235168457,,,,,,
8299,17.0,,,,,,,1.317920207977295,,,,,,
8349,17.0,,,,,,,1.045867919921875,,,,,,
8399,17.0,,,,,,,0.9592339992523193,,,,,,
8449,17.0,,,,,,,1.0803452730178833,,,,,,
8499,17.0,,,,,,,1.6660391092300415,,,,,,
8549,17.0,,,,,,,1.2614212036132812,,,,,,
8599,17.0,,,,,,,1.444833517074585,,,,,,
8639,17.0,,,0.0,0.0,0.0,0.0,,4.969836300006136e-05,30.194948196411133,3.322995185852051,6.09215784072876,20.779796600341797,0.9478711485862732
8640,,,4.960627484251745e-05,,,,,,,,,,,
8649,18.0,,,,,,,1.2442975044250488,,,,,,
8699,18.0,,,,,,,1.4220471382141113,,,,,,
8749,18.0,,,,,,,1.2818171977996826,,,,,,
8799,18.0,,,,,,,1.272999882698059,,,,,,
8849,18.0,,,,,,,1.1985185146331787,,,,,,
8899,18.0,,,,,,,1.1884374618530273,,,,,,
8949,18.0,,,,,,,1.207138180732727,,,,,,
8999,18.0,,,,,,,1.103450059890747,,,,,,
9049,18.0,,,,,,,1.182492733001709,,,,,,
9099,18.0,,,,,,,1.198524832725525,,,,,,
9119,18.0,,,0.0,0.0,0.0,0.0,,4.960627484251745e-05,30.194948196411133,5.006646156311035,4.231280326843262,20.957021713256836,0.9545331597328186
9120,,,4.950204674969427e-05,,,,,,,,,,,
9149,19.0,,,,,,,1.2107369899749756,,,,,,
9199,19.0,,,,,,,1.081537127494812,,,,,,
9249,19.0,,,,,,,1.0753390789031982,,,,,,
9299,19.0,,,,,,,1.4108245372772217,,,,,,
9349,19.0,,,,,,,1.2492244243621826,,,,,,
9399,19.0,,,,,,,1.2056300640106201,,,,,,
9449,19.0,,,,,,,1.422817587852478,,,,,,
9499,19.0,,,,,,,1.3139063119888306,,,,,,
9549,19.0,,,,,,,1.330054759979248,,,,,,
9599,19.0,,,0.0,0.0,0.0,0.0,1.1071773767471313,4.950204674969427e-05,28.489145278930664,2.8799290657043457,5.892777919769287,19.71643829345703,0.9126418232917786
9600,,,4.938573329127394e-05,,,,,,,,,,,
9649,20.0,,,,,,,0.9817512631416321,,,,,,
9699,20.0,,,,,,,1.2286509275436401,,,,,,
9749,20.0,,,,,,,1.244261384010315,,,,,,
9799,20.0,,,,,,,1.037158489227295,,,,,,
9849,20.0,,,,,,,1.026789903640747,,,,,,
9899,20.0,,,,,,,1.034294843673706,,,,,,
9949,20.0,,,,,,,1.1637636423110962,,,,,,
9999,20.0,,,,,,,1.1768343448638916,,,,,,
10049,20.0,,,,,,,1.115432858467102,,,,,,
10079,20.0,,,0.0,0.0,0.0,0.0,,4.938573329127394e-05,28.533451080322266,2.791315793991089,6.845369815826416,18.896764755249023,0.8701450228691101
10080,,,4.9257392674917355e-05,,,,,,,,,,,
10099,21.0,,,,,,,0.9751204252243042,,,,,,
10149,21.0,,,,,,,1.8392696380615234,,,,,,
10199,21.0,,,,,,,1.082391381263733,,,,,,
10249,21.0,,,,,,,0.9145898222923279,,,,,,
10299,21.0,,,,,,,1.0700042247772217,,,,,,
10349,21.0,,,,,,,0.9808550477027893,,,,,,
10399,21.0,,,,,,,1.4202744960784912,,,,,,
10449,21.0,,,,,,,1.0808018445968628,,,,,,
10499,21.0,,,,,,,0.9872024655342102,,,,,,
10549,21.0,,,,,,,1.10591459274292,,,,,,
10559,21.0,,,0.0,0.0,0.0,0.0,,4.9257392674917355e-05,25.409835815429688,3.5223748683929443,4.231280326843262,17.65618133544922,0.8424174785614014
10560,,,4.9117090384243056e-05,,,,,,,,,,,
10599,22.0,,,,,,,1.042881727218628,,,,,,
10649,22.0,,,,,,,1.1908180713653564,,,,,,
10699,22.0,,,,,,,1.2953389883041382,,,,,,
10749,22.0,,,,,,,1.278246521949768,,,,,,
10799,22.0,,,,,,,1.0651648044586182,,,,,,
10849,22.0,,,,,,,1.1976580619812012,,,,,,
10899,22.0,,,,,,,0.9192163944244385,,,,,,
10949,22.0,,,,,,,1.3764803409576416,,,,,,
10999,22.0,,,,,,,1.0060365200042725,,,,,,
11039,22.0,,,0.0,0.0,0.0,0.0,,4.9117090384243056e-05,26.80549430847168,3.633141279220581,5.715551853179932,17.45680046081543,0.8466675877571106
11040,,,4.8964895540848374e-05,,,,,,,,,,,
11049,23.0,,,,,,,1.0164718627929688,,,,,,
11099,23.0,,,,,,,0.951345682144165,,,,,,
11149,23.0,,,,,,,1.135314702987671,,,,,,
11199,23.0,,,,,,,1.1234548091888428,,,,,,
11249,23.0,,,,,,,1.3332576751708984,,,,,,
11299,23.0,,,,,,,1.075972080230713,,,,,,
11349,23.0,,,,,,,0.9618008136749268,,,,,,
11399,23.0,,,,,,,0.8787532448768616,,,,,,
11449,23.0,,,,,,,1.0494728088378906,,,,,,
11499,23.0,,,,,,,1.1905497312545776,,,,,,
11519,23.0,,,0.0,0.0,0.0,0.0,,4.8964895540848374e-05,25.476295471191406,4.076207160949707,4.231280326843262,17.168807983398438,0.8169569373130798
11520,,,4.880088454228826e-05,,,,,,,,,,,
11549,24.0,,,,,,,1.2291299104690552,,,,,,
11599,24.0,,,,,,,0.8558058738708496,,,,,,
11649,24.0,,,,,,,0.9560860395431519,,,,,,
11699,24.0,,,,,,,1.1777697801589966,,,,,,
11749,24.0,,,,,,,1.1560299396514893,,,,,,
11799,24.0,,,,,,,0.7939797639846802,,,,,,
11849,24.0,,,,,,,0.8675941228866577,,,,,,
11899,24.0,,,,,,,0.9158363342285156,,,,,,
11949,24.0,,,,,,,1.4397886991500854,,,,,,
11999,24.0,,,0.0,0.0,0.0,0.0,1.1187832355499268,4.880088454228826e-05,25.254762649536133,2.813469171524048,5.626938343048096,16.814355850219727,0.7957278490066528
12000,,,4.862514106207527e-05,,,,,,,,,,,
12049,25.0,,,,,,,0.8771631121635437,,,,,,
12099,25.0,,,,,,,1.0562005043029785,,,,,,
12149,25.0,,,,,,,1.192130208015442,,,,,,
12199,25.0,,,,,,,1.2111661434173584,,,,,,
12249,25.0,,,,,,,1.4127721786499023,,,,,,
12299,25.0,,,,,,,0.8925375938415527,,,,,,
12349,25.0,,,,,,,0.8225236535072327,,,,,,
12399,25.0,,,,,,,0.9764512181282043,,,,,,
12449,25.0,,,,,,,1.0232961177825928,,,,,,
12479,25.0,,,0.0,0.0,0.0,0.0,,4.862514106207527e-05,24.545856475830078,3.3451483249664307,4.297740459442139,16.902969360351562,0.7711900472640991
12480,,,4.843775604967959e-05,,,,,,,,,,,
12499,26.0,,,,,,,0.9520308971405029,,,,,,
12549,26.0,,,,,,,0.8174374103546143,,,,,,
12599,26.0,,,,,,,0.9453218579292297,,,,,,
12649,26.0,,,,,,,1.0479528903961182,,,,,,
12699,26.0,,,,,,,1.1150295734405518,,,,,,
12749,26.0,,,,,,,1.20033860206604,,,,,,
12799,26.0,,,,,,,0.954938530921936,,,,,,
12849,26.0,,,,,,,0.9478421807289124,,,,,,
12899,26.0,,,,,,,1.2406201362609863,,,,,,
12949,26.0,,,,,,,0.7028340697288513,,,,,,
12959,26.0,,,0.0,0.0,0.0,0.0,,4.843775604967959e-05,23.615419387817383,3.8989808559417725,2.9463889598846436,16.770048141479492,0.7606766223907471
12960,,,4.823881681659259e-05,,,,,,,,,,,
12999,27.0,,,,,,,1.197092056274414,,,,,,
13049,27.0,,,,,,,0.9759838581085205,,,,,,
13099,27.0,,,,,,,1.020837664604187,,,,,,
13149,27.0,,,,,,,0.8923295736312866,,,,,,
13199,27.0,,,,,,,0.8555877208709717,,,,,,
13249,27.0,,,,,,,1.0524557828903198,,,,,,
13299,27.0,,,,,,,1.1234380006790161,,,,,,
13349,27.0,,,,,,,1.251220703125,,,,,,
13399,27.0,,,,,,,0.8548682928085327,,,,,,
13439,27.0,,,0.0,0.0,0.0,0.0,,4.823881681659259e-05,22.928667068481445,2.9685423374176025,4.364200115203857,15.59592342376709,0.737511157989502
13440,,,4.802842886419967e-05,,,,,,,,,,,
13449,28.0,,,,,,,1.0361965894699097,,,,,,
13499,28.0,,,,,,,0.8207677602767944,,,,,,
13549,28.0,,,,,,,1.1677311658859253,,,,,,
13599,28.0,,,,,,,0.873701810836792,,,,,,
13649,28.0,,,,,,,1.0872538089752197,,,,,,
13699,28.0,,,,,,,1.1515741348266602,,,,,,
13749,28.0,,,,,,,0.8852964639663696,,,,,,
13799,28.0,,,,,,,0.7809866666793823,,,,,,
13849,28.0,,,,,,,0.8463923931121826,,,,,,
13899,28.0,,,,,,,0.7656846046447754,,,,,,
13919,28.0,,,0.0,0.0,0.0,0.0,,4.802842886419967e-05,22.84005355834961,3.5002214908599854,3.610988140106201,15.728843688964844,0.7138233780860901
13920,,,4.780670133186504e-05,,,,,,,,,,,
13949,29.0,,,,,,,0.7986058592796326,,,,,,
13999,29.0,,,,,,,0.7588531374931335,,,,,,
14049,29.0,,,,,,,0.9025774598121643,,,,,,
14099,29.0,,,,,,,1.1214556694030762,,,,,,
14149,29.0,,,,,,,0.9675916433334351,,,,,,
14199,29.0,,,,,,,0.880833625793457,,,,,,
14249,29.0,,,,,,,0.8391664028167725,,,,,,
14299,29.0,,,,,,,0.8969412446022034,,,,,,
14349,29.0,,,,,,,0.7942610383033752,,,,,,
14399,29.0,,,0.0,0.0,0.0,0.0,0.983961284160614,4.780670133186504e-05,22.59636688232422,3.190075397491455,3.278688430786133,16.12760353088379,0.7253954410552979
14400,,,4.757373608299531e-05,,,,,,,,,,,
14449,30.0,,,,,,,0.8080319166183472,,,,,,
14499,30.0,,,,,,,0.9665771126747131,,,,,,
14549,30.0,,,,,,,0.935068666934967,,,,,,
14599,30.0,,,,,,,1.0338047742843628,,,,,,
14649,30.0,,,,,,,0.8098578453063965,,,,,,
14699,30.0,,,,,,,0.8597074747085571,,,,,,
14749,30.0,,,,,,,1.1265778541564941,,,,,,
14799,30.0,,,,,,,0.9586162567138672,,,,,,
14849,30.0,,,,,,,0.8583401441574097,,,,,,
14879,30.0,,,0.0,0.0,0.0,0.0,,4.757373608299531e-05,21.998228073120117,3.743907928466797,3.3451483249664307,14.909171104431152,0.7019840478897095
14880,,,4.732966044684872e-05,,,,,,,,,,,
14899,31.0,,,,,,,0.9996349811553955,,,,,,
14949,31.0,,,,,,,0.7639029026031494,,,,,,
14999,31.0,,,,,,,0.9354150891304016,,,,,,
15049,31.0,,,,,,,1.0829190015792847,,,,,,
15099,31.0,,,,,,,0.9162323474884033,,,,,,
15149,31.0,,,,,,,0.7913870215415955,,,,,,
15199,31.0,,,,,,,0.8423957228660583,,,,,,
15249,31.0,,,,,,,1.0985829830169678,,,,,,
15299,31.0,,,,,,,0.6610033512115479,,,,,,
15349,31.0,,,,,,,1.0698410272598267,,,,,,
15359,31.0,,,0.0,0.0,0.0,0.0,,4.732966044684872e-05,22.17545509338379,3.300841808319092,3.7882144451141357,15.086398124694824,0.7150349617004395
15360,,,4.70745908387471e-05,,,,,,,,,,,
15399,32.0,,,,,,,0.8469123840332031,,,,,,
15449,32.0,,,,,,,0.839576244354248,,,,,,
15499,32.0,,,,,,,0.811677873134613,,,,,,
15549,32.0,,,,,,,0.9243122339248657,,,,,,
15599,32.0,,,,,,,0.8153115510940552,,,,,,
15649,32.0,,,,,,,0.6761525273323059,,,,,,
15699,32.0,,,,,,,0.8180572390556335,,,,,,
15749,32.0,,,,,,,0.8774056434631348,,,,,,
15799,32.0,,,,,,,0.8599916100502014,,,,,,
15839,32.0,,,0.0,0.0,0.0,0.0,,4.70745908387471e-05,21.466548919677734,3.677448034286499,2.9685423374176025,14.820558547973633,0.6885985732078552
15840,,,4.68086582259275e-05,,,,,,,,,,,
15849,33.0,,,,,,,0.8484761118888855,,,,,,
15899,33.0,,,,,,,0.9250576496124268,,,,,,
15949,33.0,,,,,,,0.8367451429367065,,,,,,
15999,33.0,,,,,,,0.9614065289497375,,,,,,
16049,33.0,,,,,,,0.776738166809082,,,,,,
16099,33.0,,,,,,,0.8555620908737183,,,,,,
16149,33.0,,,,,,,0.9286950826644897,,,,,,
16199,33.0,,,,,,,0.6696527004241943,,,,,,
16249,33.0,,,,,,,0.7216521501541138,,,,,,
16299,33.0,,,,,,,0.9056119918823242,,,,,,
16319,33.0,,,0.0,0.0,0.0,0.0,,4.68086582259275e-05,20.358882904052734,2.835622549057007,3.7660610675811768,13.757200241088867,0.6897790431976318
16320,,,4.653199721360579e-05,,,,,,,,,,,
16349,34.0,,,,,,,0.8026524782180786,,,,,,
16399,34.0,,,,,,,1.2087900638580322,,,,,,
16449,34.0,,,,,,,0.7449334859848022,,,,,,
16499,34.0,,,,,,,0.8681002259254456,,,,,,
16549,34.0,,,,,,,1.010093092918396,,,,,,
16599,34.0,,,,,,,1.0440783500671387,,,,,,
16649,34.0,,,,,,,0.922372043132782,,,,,,
16699,34.0,,,,,,,0.9778282046318054,,,,,,
16749,34.0,,,,,,,0.9977531433105469,,,,,,
16799,34.0,,,0.0,0.0,0.0,0.0,1.158764123916626,4.653199721360579e-05,20.225963592529297,3.167922019958496,3.8103678226470947,13.247673988342285,0.6728784441947937
16800,,,4.624474240699783e-05,,,,,,,,,,,
16849,35.0,,,,,,,0.8070282936096191,,,,,,
16899,35.0,,,,,,,0.6272751092910767,,,,,,
16949,35.0,,,,,,,0.8401435017585754,,,,,,
16999,35.0,,,,,,,0.8217084407806396,,,,,,
17049,35.0,,,,,,,0.7921143770217896,,,,,,
17099,35.0,,,,,,,0.860296368598938,,,,,,
17149,35.0,,,,,,,0.9832870960235596,,,,,,
17199,35.0,,,,,,,0.9735313653945923,,,,,,
17249,35.0,,,,,,,1.0288097858428955,,,,,,
17279,35.0,,,0.0,0.0,0.0,0.0,,4.624474240699783e-05,20.580415725708008,2.9906957149505615,4.120513916015625,13.469206809997559,0.6554562449455261
17280,,,4.594704296323471e-05,,,,,,,,,,,
17299,36.0,,,,,,,0.9193476438522339,,,,,,
17349,36.0,,,,,,,0.9849249124526978,,,,,,
17399,36.0,,,,,,,0.5603947639465332,,,,,,
17449,36.0,,,,,,,0.9909094572067261,,,,,,
17499,36.0,,,,,,,0.6889016628265381,,,,,,
17549,36.0,,,,,,,0.779710054397583,,,,,,
17599,36.0,,,,,,,0.9291818737983704,,,,,,
17649,36.0,,,,,,,1.0758174657821655,,,,,,
17699,36.0,,,,,,,0.7533608078956604,,,,,,
17749,36.0,,,,,,,0.8974201679229736,,,,,,
17759,36.0,,,0.0,0.0,0.0,0.0,,4.594704296323471e-05,20.02658462524414,2.8799290657043457,3.721754550933838,13.42490005493164,0.6307970285415649
17760,,,4.563905167742632e-05,,,,,,,,,,,
17799,37.0,,,,,,,0.8060437440872192,,,,,,
17849,37.0,,,,,,,0.6920526027679443,,,,,,
17899,37.0,,,,,,,0.8307192325592041,,,,,,
17949,37.0,,,,,,,0.9793949127197266,,,,,,
17999,37.0,,,,,,,0.7643848657608032,,,,,,
18049,37.0,,,,,,,0.9044836759567261,,,,,,
18099,37.0,,,,,,,0.8240616321563721,,,,,,
18149,37.0,,,,,,,0.7622794508934021,,,,,,
18199,37.0,,,,,,,1.0254350900650024,,,,,,
18239,37.0,,,0.0,0.0,0.0,0.0,,4.563905167742632e-05,19.982276916503906,3.3451483249664307,3.234381914138794,13.40274715423584,0.6439808011054993
18240,,,4.532091770670377e-05,,,,,,,,,,,
18249,38.0,,,,,,,0.6529757976531982,,,,,,
18299,38.0,,,,,,,0.7625727653503418,,,,,,
18349,38.0,,,,,,,0.7519072890281677,,,,,,
18399,38.0,,,,,,,0.6313056349754333,,,,,,
18449,38.0,,,,,,,0.6669142246246338,,,,,,
18499,38.0,,,,,,,0.8338543176651001,,,,,,
18549,38.0,,,,,,,0.788549542427063,,,,,,
18599,38.0,,,,,,,0.5630936622619629,,,,,,
18649,38.0,,,,,,,0.8687623739242554,,,,,,
18699,38.0,,,,,,,0.8029698133468628,,,,,,
18719,38.0,,,0.0,0.0,0.0,0.0,,4.532091770670377e-05,20.159503936767578,2.9906957149505615,3.3894550800323486,13.779353141784668,0.6343079209327698
18720,,,4.499280112213455e-05,,,,,,,,,,,
18749,39.0,,,,,,,0.6990526914596558,,,,,,
18799,39.0,,,,,,,0.6186232566833496,,,,,,
18849,39.0,,,,,,,0.8142741918563843,,,,,,
18899,39.0,,,,,,,1.1015793085098267,,,,,,
18949,39.0,,,,,,,0.7822450399398804,,,,,,
18999,39.0,,,,,,,0.6586860418319702,,,,,,
19049,39.0,,,,,,,1.023121953010559,,,,,,
19099,39.0,,,,,,,0.8439061641693115,,,,,,
19149,39.0,,,,,,,0.8041104078292847,,,,,,
19199,39.0,,,0.0,0.0,0.0,0.0,1.017343521118164,4.499280112213455e-05,19.22906494140625,2.857775926589966,3.633141279220581,12.738147735595703,0.6036486625671387
19200,,,4.465487290872261e-05,,,,,,,,,,,
19249,40.0,,,,,,,0.633549153804779,,,,,,
19299,40.0,,,,,,,0.8322330117225647,,,,,,
19349,40.0,,,,,,,0.5606750845909119,,,,,,
19399,40.0,,,,,,,0.7328405380249023,,,,,,
19449,40.0,,,,,,,0.9317009449005127,,,,,,
19499,40.0,,,,,,,0.7832797765731812,,,,,,
19549,40.0,,,,,,,0.7071105241775513,,,,,,
19599,40.0,,,,,,,0.7096951007843018,,,,,,
19649,40.0,,,,,,,0.8668861389160156,,,,,,
19679,40.0,,,0.0,0.0,0.0,0.0,,4.465487290872261e-05,20.536109924316406,2.281790018081665,4.652193069458008,13.602127075195312,0.6400285959243774
19680,,,4.430729677551426e-05,,,,,,,,,,,
19699,41.0,,,,,,,0.7730929851531982,,,,,,
19749,41.0,,,,,,,0.9176498651504517,,,,,,
19799,41.0,,,,,,,0.7087457776069641,,,,,,
19849,41.0,,,,,,,0.7625511884689331,,,,,,
19899,41.0,,,,,,,0.9212945103645325,,,,,,
19949,41.0,,,,,,,0.8978756666183472,,,,,,
19999,41.0,,,,,,,0.6846824288368225,,,,,,
20049,41.0,,,,,,,0.8239904046058655,,,,,,
20099,41.0,,,,,,,0.8211935758590698,,,,,,
20149,41.0,,,,,,,0.7346827983856201,,,,,,
20159,41.0,,,0.0,0.0,0.0,0.0,,4.430729677551426e-05,18.431547164916992,2.5476295948028564,3.4116082191467285,12.472308158874512,0.5719591379165649
20160,,,4.395025098347105e-05,,,,,,,,,,,
20199,42.0,,,,,,,0.7810713648796082,,,,,,
20249,42.0,,,,,,,0.9882141351699829,,,,,,
20299,42.0,,,,,,,0.9405404329299927,,,,,,
20349,42.0,,,,,,,0.6438349485397339,,,,,,
20399,42.0,,,,,,,0.8024560213088989,,,,,,
20449,42.0,,,,,,,0.6022538542747498,,,,,,
20499,42.0,,,,,,,0.6999133825302124,,,,,,
20549,42.0,,,,,,,0.806448221206665,,,,,,
20599,42.0,,,,,,,0.7688246965408325,,,,,,
20639,42.0,,,0.0,0.0,0.0,0.0,,4.395025098347105e-05,20.20380973815918,4.076207160949707,2.702702760696411,13.42490005493164,0.6397274732589722
20640,,,4.358391379355453e-05,,,,,,,,,,,
20649,43.0,,,,,,,0.7460747957229614,,,,,,
20699,43.0,,,,,,,0.4925595819950104,,,,,,
20749,43.0,,,,,,,0.8713967800140381,,,,,,
20799,43.0,,,,,,,0.701174795627594,,,,,,
20849,43.0,,,,,,,0.6733524799346924,,,,,,
20899,43.0,,,,,,,0.5632632970809937,,,,,,
20949,43.0,,,,,,,0.6460940837860107,,,,,,
20999,43.0,,,,,,,0.6855088472366333,,,,,,
21049,43.0,,,,,,,0.8255108594894409,,,,,,
21099,43.0,,,,,,,0.820397675037384,,,,,,
21119,43.0,,,0.0,0.0,0.0,0.0,,4.358391379355453e-05,17.833406448364258,2.6362428665161133,2.9685423374176025,12.228622436523438,0.5905482769012451
21120,,,4.3208474380662665e-05,,,,,,,,,,,
21149,44.0,,,,,,,0.5754004120826721,,,,,,
21199,44.0,,,,,,,0.7352152466773987,,,,,,
21249,44.0,,,,,,,0.841562032699585,,,,,,
21299,44.0,,,,,,,0.9296249151229858,,,,,,
21349,44.0,,,,,,,1.0290008783340454,,,,,,
21399,44.0,,,,,,,0.5754486918449402,,,,,,
21449,44.0,,,,,,,0.6973378658294678,,,,,,
21499,44.0,,,,,,,0.7199325561523438,,,,,,
21549,44.0,,,,,,,0.585280179977417,,,,,,
21599,44.0,,,0.0,0.0,0.0,0.0,0.9142073392868042,4.3208474380662665e-05,19.71643829345703,2.9463889598846436,3.5223748683929443,13.247673988342285,0.6284146308898926
21600,,,4.282411464373581e-05,,,,,,,,,,,
21649,45.0,,,,,,,0.6998118162155151,,,,,,
21699,45.0,,,,,,,0.5510029196739197,,,,,,
21749,45.0,,,,,,,0.8638765811920166,,,,,,
21799,45.0,,,,,,,0.866091251373291,,,,,,
21849,45.0,,,,,,,0.5717092752456665,,,,,,
21899,45.0,,,,,,,0.6216331720352173,,,,,,
21949,45.0,,,,,,,0.8661001324653625,,,,,,
21999,45.0,,,,,,,0.666357159614563,,,,,,
22049,45.0,,,,,,,0.9980149269104004,,,,,,
22079,45.0,,,0.0,0.0,0.0,0.0,,4.282411464373581e-05,18.830305099487305,3.0571556091308594,3.4116082191467285,12.361541748046875,0.6021403670310974
22080,,,4.243103467160836e-05,,,,,,,,,,,
22099,46.0,,,,,,,0.9008340835571289,,,,,,
22149,46.0,,,,,,,0.8545147776603699,,,,,,
22199,46.0,,,,,,,0.7548874616622925,,,,,,
22249,46.0,,,,,,,0.6752210855484009,,,,,,
22299,46.0,,,,,,,0.6157793998718262,,,,,,
22349,46.0,,,,,,,0.4563194811344147,,,,,,
22399,46.0,,,,,,,0.7649293541908264,,,,,,
22449,46.0,,,,,,,0.5557165741920471,,,,,,
22499,46.0,,,,,,,0.7962225675582886,,,,,,
22549,46.0,,,,,,,0.7377840280532837,,,,,,
22559,46.0,,,0.0,0.0,0.0,0.0,,4.243103467160836e-05,17.855560302734375,2.724855899810791,3.4116082191467285,11.719096183776855,0.5841584205627441
22560,,,4.202942727715708e-05,,,,,,,,,,,
22599,47.0,,,,,,,0.5403484106063843,,,,,,
22649,47.0,,,,,,,0.584713876247406,,,,,,
22699,47.0,,,,,,,0.6848872900009155,,,,,,
22749,47.0,,,,,,,0.47876274585723877,,,,,,
22799,47.0,,,,,,,0.6756821274757385,,,,,,
22849,47.0,,,,,,,0.5401716828346252,,,,,,
22899,47.0,,,,,,,0.6252764463424683,,,,,,
22949,47.0,,,,,,,0.9530622959136963,,,,,,
22999,47.0,,,,,,,0.6246305108070374,,,,,,
23039,47.0,,,0.0,0.0,0.0,0.0,,4.202942727715708e-05,18.36508560180664,3.0350022315979004,2.9685423374176025,12.361541748046875,0.5850912928581238
23040,,,4.161949982517399e-05,,,,,,,,,,,
23049,48.0,,,,,,,0.6735459566116333,,,,,,
23099,48.0,,,,,,,0.6014440059661865,,,,,,
23149,48.0,,,,,,,0.547787070274353,,,,,,
23199,48.0,,,,,,,0.7161273956298828,,,,,,
23249,48.0,,,,,,,0.5610886216163635,,,,,,
23299,48.0,,,,,,,0.5469561219215393,,,,,,
23349,48.0,,,,,,,0.7983765602111816,,,,,,
23399,48.0,,,,,,,0.7449816465377808,,,,,,
23449,48.0,,,,,,,0.48570507764816284,,,,,,
23499,48.0,,,,,,,0.7205702066421509,,,,,,
23519,48.0,,,0.0,0.0,0.0,0.0,,4.161949982517399e-05,18.099246978759766,2.680549383163452,3.234381914138794,12.18431568145752,0.5870166420936584
23520,,,4.1201452404493466e-05,,,,,,,,,,,
23549,49.0,,,,,,,0.7849856615066528,,,,,,
23599,49.0,,,,,,,0.5189621448516846,,,,,,
23649,49.0,,,,,,,0.5127964019775391,,,,,,
23699,49.0,,,,,,,0.5971212387084961,,,,,,
23749,49.0,,,,,,,0.6915491223335266,,,,,,
23799,49.0,,,,,,,0.5534233450889587,,,,,,
23849,49.0,,,,,,,0.681780219078064,,,,,,
23899,49.0,,,,,,,0.7723252773284912,,,,,,
23949,49.0,,,,,,,0.6156391501426697,,,,,,
23999,49.0,,,0.0,0.0,0.0,0.0,0.7612449526786804,4.1201452404493466e-05,17.744794845581055,2.5476295948028564,3.65529465675354,11.5418701171875,0.5706449151039124
24000,,,4.077549965586513e-05,,,,,,,,,,,
24049,50.0,,,,,,,0.683765172958374,,,,,,
24099,50.0,,,,,,,0.7427835464477539,,,,,,
24149,50.0,,,,,,,0.5962530970573425,,,,,,
24199,50.0,,,,,,,0.6950247287750244,,,,,,
24249,50.0,,,,,,,0.5788254737854004,,,,,,
24299,50.0,,,,,,,0.7153065204620361,,,,,,
24349,50.0,,,,,,,0.5131524205207825,,,,,,
24399,50.0,,,,,,,0.7124887704849243,,,,,,
24449,50.0,,,,,,,0.48227518796920776,,,,,,
24479,50.0,,,0.0,0.0,0.0,0.0,,4.077549965586513e-05,17.14665412902832,2.5033230781555176,3.300841808319092,11.342490196228027,0.5580026507377625
24480,,,4.034185622003861e-05,,,,,,,,,,,
24499,51.0,,,,,,,0.5278512239456177,,,,,,
24549,51.0,,,,,,,0.6657229661941528,,,,,,
24599,51.0,,,,,,,0.5011563301086426,,,,,,
24649,51.0,,,,,,,0.7652170658111572,,,,,,
24699,51.0,,,,,,,0.8261961340904236,,,,,,
24749,51.0,,,,,,,0.5259008407592773,,,,,,
24799,51.0,,,,,,,1.0438451766967773,,,,,,
24849,51.0,,,,,,,0.6495932936668396,,,,,,
24899,51.0,,,,,,,0.6720534563064575,,,,,,
24949,51.0,,,,,,,0.7246938943862915,,,,,,
24959,51.0,,,0.0,0.0,0.0,0.0,,4.034185622003861e-05,17.567567825317383,2.791315793991089,2.9906957149505615,11.785555839538574,0.5655314326286316
24960,,,3.9900740375742316e-05,,,,,,,,,,,
24999,52.0,,,,,,,0.7338135242462158,,,,,,
25049,52.0,,,,,,,0.6627615094184875,,,,,,
25099,52.0,,,,,,,0.5208220481872559,,,,,,
25149,52.0,,,,,,,0.6207208037376404,,,,,,
25199,52.0,,,,,,,0.697880744934082,,,,,,
25249,52.0,,,,,,,0.5855526924133301,,,,,,
25299,52.0,,,,,,,0.5549347400665283,,,,,,
25349,52.0,,,,,,,0.5154315233230591,,,,,,
25399,52.0,,,,,,,0.657958984375,,,,,,
25439,52.0,,,0.0,0.0,0.0,0.0,,3.9900740375742316e-05,18.32077980041504,3.190075397491455,3.256535291671753,11.87416934967041,0.5860428214073181
25440,,,3.9452370401704684e-05,,,,,,,,,,,
25449,53.0,,,,,,,0.679699182510376,,,,,,
25499,53.0,,,,,,,0.6639916896820068,,,,,,
25549,53.0,,,,,,,0.7713157534599304,,,,,,
25599,53.0,,,,,,,0.6912530660629272,,,,,,
25649,53.0,,,,,,,1.0313694477081299,,,,,,
25699,53.0,,,,,,,0.5418381690979004,,,,,,
25749,53.0,,,,,,,0.776260256767273,,,,,,
25799,53.0,,,,,,,0.7583156824111938,,,,,,
25849,53.0,,,,,,,0.5822433829307556,,,,,,
25899,53.0,,,,,,,0.6259045600891113,,,,,,
25919,53.0,,,0.0,0.0,0.0,0.0,,3.9452370401704684e-05,17.235267639160156,2.813469171524048,2.791315793991089,11.63048267364502,0.5652211308479309
25920,,,3.899697549059056e-05,,,,,,,,,,,
25949,54.0,,,,,,,0.4810218811035156,,,,,,
25999,54.0,,,,,,,0.6158517003059387,,,,,,
26049,54.0,,,,,,,0.9426153898239136,,,,,,
26099,54.0,,,,,,,0.4602898359298706,,,,,,
26149,54.0,,,,,,,0.5725125074386597,,,,,,
26199,54.0,,,,,,,0.5355918407440186,,,,,,
26249,54.0,,,,,,,0.5149242877960205,,,,,,
26299,54.0,,,,,,,0.6390852332115173,,,,,,
26349,54.0,,,,,,,0.7697789669036865,,,,,,
26399,54.0,,,0.0,0.0,0.0,0.0,0.7404314279556274,3.899697549059056e-05,17.058042526245117,3.167922019958496,2.281790018081665,11.608329772949219,0.5570372343063354
26400,,,3.8534784835064784e-05,,,,,,,,,,,
26449,55.0,,,,,,,0.6881171464920044,,,,,,
26499,55.0,,,,,,,0.6833542585372925,,,,,,
26549,55.0,,,,,,,0.6795467138290405,,,,,,
26599,55.0,,,,,,,0.5985375046730042,,,,,,
26649,55.0,,,,,,,0.5378682613372803,,,,,,
26699,55.0,,,,,,,0.6126270890235901,,,,,,
26749,55.0,,,,,,,0.6972151398658752,,,,,,
26799,55.0,,,,,,,0.6614454388618469,,,,,,
26849,55.0,,,,,,,0.8119873404502869,,,,,,
26879,55.0,,,0.0,0.0,0.0,0.0,,3.8534784835064784e-05,17.301727294921875,2.6362428665161133,3.278688430786133,11.386796951293945,0.5436079502105713
26880,,,3.8066031265771016e-05,,,,,,,,,,,
26899,56.0,,,,,,,0.7376903891563416,,,,,,
26949,56.0,,,,,,,0.4016473889350891,,,,,,
26999,56.0,,,,,,,0.570554256439209,,,,,,
27049,56.0,,,,,,,0.5189378261566162,,,,,,
27099,56.0,,,,,,,0.963520884513855,,,,,,
27149,56.0,,,,,,,0.42776739597320557,,,,,,
27199,56.0,,,,,,,0.7420473098754883,,,,,,
27249,56.0,,,,,,,0.542341947555542,,,,,,
27299,56.0,,,,,,,0.5448729991912842,,,,,,
27349,56.0,,,,,,,0.5896386504173279,,,,,,
27359,56.0,,,0.0,0.0,0.0,0.0,,3.8066031265771016e-05,17.035888671875,2.5697829723358154,2.8799290657043457,11.586175918579102,0.5418640971183777
27360,,,3.759095125133172e-05,,,,,,,,,,,
27399,57.0,,,,,,,0.5525420308113098,,,,,,
27449,57.0,,,,,,,0.5004252195358276,,,,,,
27499,57.0,,,,,,,0.6267132759094238,,,,,,
27549,57.0,,,,,,,0.4933912456035614,,,,,,
27599,57.0,,,,,,,0.656895101070404,,,,,,
27649,57.0,,,,,,,0.8462610244750977,,,,,,
27699,57.0,,,,,,,0.9322406053543091,,,,,,
27749,57.0,,,,,,,0.69359290599823,,,,,,
27799,57.0,,,,,,,0.509575605392456,,,,,,
27839,57.0,,,0.0,0.0,0.0,0.0,,3.759095125133172e-05,16.504209518432617,2.813469171524048,2.4811697006225586,11.209569931030273,0.5523119568824768
27840,,,3.7109781260369346e-05,,,,,,,,,,,
27849,58.0,,,,,,,0.5695168375968933,,,,,,
27899,58.0,,,,,,,0.8083062767982483,,,,,,
27949,58.0,,,,,,,0.8377436995506287,,,,,,
27999,58.0,,,,,,,0.563246488571167,,,,,,
28049,58.0,,,,,,,0.5521913766860962,,,,,,
28099,58.0,,,,,,,0.7382752299308777,,,,,,
28149,58.0,,,,,,,0.49635764956474304,,,,,,
28199,58.0,,,,,,,0.5631009340286255,,,,,,
28249,58.0,,,,,,,0.6250462532043457,,,,,,
28299,58.0,,,,,,,0.6377342939376831,,,,,,
28319,58.0,,,0.0,0.0,0.0,0.0,,3.7109781260369346e-05,15.706689834594727,2.5254762172698975,2.5697829723358154,10.611431121826172,0.5305534601211548
28320,,,3.6622768675442785e-05,,,,,,,,,,,
28349,59.0,,,,,,,0.567517101764679,,,,,,
28399,59.0,,,,,,,0.5853575468063354,,,,,,
28449,59.0,,,,,,,0.6565331220626831,,,,,,
28499,59.0,,,,,,,0.4652749001979828,,,,,,
28549,59.0,,,,,,,0.6316732168197632,,,,,,
28599,59.0,,,,,,,0.9297616481781006,,,,,,
28649,59.0,,,,,,,0.6332818269729614,,,,,,
28699,59.0,,,,,,,0.46317997574806213,,,,,,
28749,59.0,,,,,,,0.5223598480224609,,,,,,
28799,59.0,,,0.0,0.0,0.0,0.0,0.8969339728355408,3.6622768675442785e-05,16.681434631347656,3.190075397491455,2.281790018081665,11.209569931030273,0.5560431480407715
28800,,,3.6130149965174496e-05,,,,,,,,,,,
28849,60.0,,,,,,,0.7063075304031372,,,,,,
28899,60.0,,,,,,,0.610538899898529,,,,,,
28949,60.0,,,,,,,0.5219387412071228,,,,,,
28999,60.0,,,,,,,0.5840717554092407,,,,,,
29049,60.0,,,,,,,0.6256670355796814,,,,,,
29099,60.0,,,,,,,0.3604332208633423,,,,,,
29149,60.0,,,,,,,0.47133883833885193,,,,,,
29199,60.0,,,,,,,0.5804854035377502,,,,,,
29249,60.0,,,,,,,0.5715676546096802,,,,,,
29279,60.0,,,0.0,0.0,0.0,0.0,,3.6130149965174496e-05,16.681434631347656,3.212228536605835,2.237483501434326,11.23172378540039,0.5605598092079163
29280,,,3.563218342605978e-05,,,,,,,,,,,
29299,61.0,,,,,,,0.5294493436813354,,,,,,
29349,61.0,,,,,,,0.49051982164382935,,,,,,
29399,61.0,,,,,,,0.7493582963943481,,,,,,
29449,61.0,,,,,,,0.48075413703918457,,,,,,
29499,61.0,,,,,,,0.5563356876373291,,,,,,
29549,61.0,,,,,,,0.6358034610748291,,,,,,
29599,61.0,,,,,,,0.5188864469528198,,,,,,
29649,61.0,,,,,,,0.5934581160545349,,,,,,
29699,61.0,,,,,,,0.607818603515625,,,,,,
29749,61.0,,,,,,,0.6797648668289185,,,,,,
29759,61.0,,,0.0,0.0,0.0,0.0,,3.563218342605978e-05,16.902969360351562,3.1236155033111572,2.680549383163452,11.098803520202637,0.542307436466217
29760,,,3.512911280267872e-05,,,,,,,,,,,
29799,62.0,,,,,,,0.570396900177002,,,,,,
29849,62.0,,,,,,,0.7870343923568726,,,,,,
29899,62.0,,,,,,,0.3841588497161865,,,,,,
29949,62.0,,,,,,,0.5876227617263794,,,,,,
29999,62.0,,,,,,,0.5391045808792114,,,,,,
30049,62.0,,,,,,,0.5274921655654907,,,,,,
30099,62.0,,,,,,,0.5533459186553955,,,,,,
30149,62.0,,,,,,,0.5942833423614502,,,,,,
30199,62.0,,,,,,,0.4103285074234009,,,,,,
30239,62.0,,,0.0,0.0,0.0,0.0,,3.512911280267872e-05,16.23836898803711,2.6140894889831543,2.9020824432373047,10.722197532653809,0.5390862226486206
30240,,,3.462119639152661e-05,,,,,,,,,,,
30249,63.0,,,,,,,0.4841212034225464,,,,,,
30299,63.0,,,,,,,0.45902949571609497,,,,,,
30349,63.0,,,,,,,0.4748760759830475,,,,,,
30399,63.0,,,,,,,0.670053243637085,,,,,,
30449,63.0,,,,,,,0.5745430588722229,,,,,,
30499,63.0,,,,,,,0.3709729313850403,,,,,,
30549,63.0,,,,,,,0.4531635046005249,,,,,,
30599,63.0,,,,,,,0.6149551868438721,,,,,,
30649,63.0,,,,,,,0.5864439010620117,,,,,,
30699,63.0,,,,,,,0.5660181045532227,,,,,,
30719,63.0,,,0.0,0.0,0.0,0.0,,3.462119639152661e-05,16.282676696777344,3.0793087482452393,2.724855899810791,10.478510856628418,0.5536323189735413
30720,,,3.4108681575162336e-05,,,,,,,,,,,
30749,64.0,,,,,,,0.35915011167526245,,,,,,
30799,64.0,,,,,,,0.582716703414917,,,,,,
30849,64.0,,,,,,,0.4546639323234558,,,,,,
30899,64.0,,,,,,,0.5018101334571838,,,,,,
30949,64.0,,,,,,,0.5499987602233887,,,,,,
30999,64.0,,,,,,,0.5893955826759338,,,,,,
31049,64.0,,,,,,,0.6515085697174072,,,,,,
31099,64.0,,,,,,,0.5930174589157104,,,,,,
31149,64.0,,,,,,,0.491303026676178,,,,,,
31199,64.0,,,0.0,0.0,0.0,0.0,0.37217578291893005,3.4108681575162336e-05,15.662384033203125,2.4811697006225586,2.6140894889831543,10.567124366760254,0.5280476808547974
31200,,,3.3591837564017624e-05,,,,,,,,,,,
31249,65.0,,,,,,,0.48907047510147095,,,,,,
31299,65.0,,,,,,,0.5512194037437439,,,,,,
31349,65.0,,,,,,,0.44696611166000366,,,,,,
31399,65.0,,,,,,,0.46883225440979004,,,,,,
31449,65.0,,,,,,,0.34723585844039917,,,,,,
31499,65.0,,,,,,,0.5273373126983643,,,,,,
31549,65.0,,,,,,,0.4888938069343567,,,,,,
31599,65.0,,,,,,,0.47934117913246155,,,,,,
31649,65.0,,,,,,,0.6066567897796631,,,,,,
31679,65.0,,,0.0,0.0,0.0,0.0,,3.3591837564017624e-05,15.529463768005371,2.9242358207702637,2.1267168521881104,10.478510856628418,0.5204404592514038
31680,,,3.307091537863016e-05,,,,,,,,,,,
31699,66.0,,,,,,,0.5578569173812866,,,,,,
31749,66.0,,,,,,,0.5814383029937744,,,,,,
31799,66.0,,,,,,,0.4625125527381897,,,,,,
31849,66.0,,,,,,,0.5350154638290405,,,,,,
31899,66.0,,,,,,,0.5371485948562622,,,,,,
31949,66.0,,,,,,,0.3934169411659241,,,,,,
31999,66.0,,,,,,,0.6280090808868408,,,,,,
32049,66.0,,,,,,,0.4614233374595642,,,,,,
32099,66.0,,,,,,,0.4751408100128174,,,,,,
32149,66.0,,,,,,,0.646694004535675,,,,,,
32159,66.0,,,0.0,0.0,0.0,0.0,,3.307091537863016e-05,15.728843688964844,2.303943395614624,2.680549383163452,10.74435043334961,0.5470541715621948
32160,,,3.2546184229431674e-05,,,,,,,,,,,
32199,67.0,,,,,,,0.6323814392089844,,,,,,
32249,67.0,,,,,,,0.250674307346344,,,,,,
32299,67.0,,,,,,,0.48539039492607117,,,,,,
32349,67.0,,,,,,,0.6234191656112671,,,,,,
32399,67.0,,,,,,,0.5722370147705078,,,,,,
32449,67.0,,,,,,,0.421774685382843,,,,,,
32499,67.0,,,,,,,0.6624307632446289,,,,,,
32549,67.0,,,,,,,0.5764258503913879,,,,,,
32599,67.0,,,,,,,0.6231400966644287,,,,,,
32639,67.0,,,0.0,0.0,0.0,0.0,,3.2546184229431674e-05,15.219317436218262,2.74700927734375,2.6140894889831543,9.858219146728516,0.5152566432952881
32640,,,3.2017902412917465e-05,,,,,,,,,,,
32649,68.0,,,,,,,0.4464554190635681,,,,,,
32699,68.0,,,,,,,0.5437026619911194,,,,,,
32749,68.0,,,,,,,0.3528231680393219,,,,,,
32799,68.0,,,,,,,0.5056828856468201,,,,,,
32849,68.0,,,,,,,0.63477623462677,,,,,,
32899,68.0,,,,,,,0.5554033517837524,,,,,,
32949,68.0,,,,,,,0.5475360155105591,,,,,,
32999,68.0,,,,,,,0.42450064420700073,,,,,,
33049,68.0,,,,,,,0.5339729189872742,,,,,,
33099,68.0,,,,,,,0.6935064792633057,,,,,,
33119,68.0,,,0.0,0.0,0.0,0.0,,3.2017902412917465e-05,15.750996589660645,2.8799290657043457,2.259636640548706,10.611431121826172,0.5260644555091858
33120,,,3.148633913951926e-05,,,,,,,,,,,
33149,69.0,,,,,,,0.4456562399864197,,,,,,
33199,69.0,,,,,,,0.4451500475406647,,,,,,
33249,69.0,,,,,,,0.613777756690979,,,,,,
33299,69.0,,,,,,,0.47039517760276794,,,,,,
33349,69.0,,,,,,,0.5522303581237793,,,,,,
33399,69.0,,,,,,,0.7039625644683838,,,,,,
33449,69.0,,,,,,,0.4524887800216675,,,,,,
33499,69.0,,,,,,,0.4569084048271179,,,,,,
33549,69.0,,,,,,,0.5034239292144775,,,,,,
33599,69.0,,,0.0,0.0,0.0,0.0,0.30112773180007935,3.148633913951926e-05,16.016836166381836,2.6362428665161133,2.4368631839752197,10.943730354309082,0.5268716216087341
33600,,,3.095176361966878e-05,,,,,,,,,,,
33649,70.0,,,,,,,0.6515016555786133,,,,,,
33699,70.0,,,,,,,0.7509913444519043,,,,,,
33749,70.0,,,,,,,0.4187837839126587,,,,,,
33799,70.0,,,,,,,0.4057585895061493,,,,,,
33849,70.0,,,,,,,0.5856367945671082,,,,,,
33899,70.0,,,,,,,0.4971485435962677,,,,,,
33949,70.0,,,,,,,0.599822998046875,,,,,,
33999,70.0,,,,,,,0.4232258200645447,,,,,,
34049,70.0,,,,,,,0.5084291696548462,,,,,,
34079,70.0,,,0.0,0.0,0.0,0.0,,3.095176361966878e-05,15.529463768005371,2.5033230781555176,2.5476295948028564,10.478510856628418,0.5195280313491821
34080,,,3.041444142581895e-05,,,,,,,,,,,
34099,71.0,,,,,,,0.564380407333374,,,,,,
34149,71.0,,,,,,,0.4256797432899475,,,,,,
34199,71.0,,,,,,,0.33237266540527344,,,,,,
34249,71.0,,,,,,,0.501605749130249,,,,,,
34299,71.0,,,,,,,0.48002639412879944,,,,,,
34349,71.0,,,,,,,0.5068687200546265,,,,,,
34399,71.0,,,,,,,0.4567631185054779,,,,,,
34449,71.0,,,,,,,0.5299263596534729,,,,,,
34499,71.0,,,,,,,0.34210044145584106,,,,,,
34549,71.0,,,,,,,0.5165413618087769,,,,,,
34559,71.0,,,0.0,0.0,0.0,0.0,,3.041444142581895e-05,15.175010681152344,2.769162654876709,2.215330123901367,10.190518379211426,0.5154087543487549
34560,,,2.9874643587390892e-05,,,,,,,,,,,
34599,72.0,,,,,,,0.3770575523376465,,,,,,
34649,72.0,,,,,,,0.5818017721176147,,,,,,
34699,72.0,,,,,,,0.4169307351112366,,,,,,
34749,72.0,,,,,,,0.5888450741767883,,,,,,
34799,72.0,,,,,,,0.53387451171875,,,,,,
34849,72.0,,,,,,,0.46525585651397705,,,,,,
34899,72.0,,,,,,,0.47555243968963623,,,,,,
34949,72.0,,,,,,,0.49144983291625977,,,,,,
34999,72.0,,,,,,,0.4350138008594513,,,,,,
35039,72.0,,,0.0,0.0,0.0,0.0,,2.9874643587390892e-05,15.440850257873535,2.835622549057007,2.4147098064422607,10.190518379211426,0.5253142714500427
35040,,,2.9332644771784544e-05,,,,,,,,,,,
35049,73.0,,,,,,,0.4999111294746399,,,,,,
35099,73.0,,,,,,,0.5835330486297607,,,,,,
35149,73.0,,,,,,,0.40399035811424255,,,,,,
35199,73.0,,,,,,,0.45668280124664307,,,,,,
35249,73.0,,,,,,,0.4966876804828644,,,,,,
35299,73.0,,,,,,,0.47421523928642273,,,,,,
35349,73.0,,,,,,,0.3475189208984375,,,,,,
35399,73.0,,,,,,,0.5432302951812744,,,,,,
35449,73.0,,,,,,,0.438062846660614,,,,,,
35499,73.0,,,,,,,0.5426797866821289,,,,,,
35519,73.0,,,0.0,0.0,0.0,0.0,,2.9332644771784544e-05,15.175010681152344,2.5033230781555176,2.6362428665161133,10.035445213317871,0.517172634601593
35520,,,2.878871418943163e-05,,,,,,,,,,,
35549,74.0,,,,,,,0.5179577469825745,,,,,,
35599,74.0,,,,,,,0.6458476781845093,,,,,,
35649,74.0,,,,,,,0.3960382342338562,,,,,,
35699,74.0,,,,,,,0.30889320373535156,,,,,,
35749,74.0,,,,,,,0.5203263759613037,,,,,,
35799,74.0,,,,,,,0.45441609621047974,,,,,,
35849,74.0,,,,,,,0.46240442991256714,,,,,,
35899,74.0,,,,,,,0.4902896285057068,,,,,,
35949,74.0,,,,,,,0.30453434586524963,,,,,,
35999,74.0,,,0.0,0.0,0.0,0.0,0.4357931315898895,2.878871418943163e-05,15.485157012939453,3.1014621257781982,2.1267168521881104,10.256978034973145,0.5259420871734619
36000,,,2.8243130145710893e-05,,,,,,,,,,,
36049,75.0,,,,,,,0.6413472294807434,,,,,,
36099,75.0,,,,,,,0.8263031244277954,,,,,,
36149,75.0,,,,,,,0.4580238461494446,,,,,,
36199,75.0,,,,,,,0.4330175220966339,,,,,,
36249,75.0,,,,,,,0.3597157597541809,,,,,,
36299,75.0,,,,,,,0.4198077917098999,,,,,,
36349,75.0,,,,,,,0.42572855949401855,,,,,,
36399,75.0,,,,,,,0.5055938959121704,,,,,,
36449,75.0,,,,,,,0.44019439816474915,,,,,,
36479,75.0,,,0.0,0.0,0.0,0.0,,2.8243130145710893e-05,15.197164535522461,2.702702760696411,2.1045634746551514,10.389898300170898,0.524565577507019
36480,,,2.769616367004346e-05,,,,,,,,,,,
36499,76.0,,,,,,,0.37139075994491577,,,,,,
36549,76.0,,,,,,,0.37113556265830994,,,,,,
36599,76.0,,,,,,,0.4953737258911133,,,,,,
36649,76.0,,,,,,,0.45205098390579224,,,,,,
36699,76.0,,,,,,,0.4477560818195343,,,,,,
36749,76.0,,,,,,,0.448459267616272,,,,,,
36799,76.0,,,,,,,0.2585652470588684,,,,,,
36849,76.0,,,,,,,0.4466787576675415,,,,,,
36899,76.0,,,,,,,0.5980590581893921,,,,,,
36949,76.0,,,,,,,0.42727556824684143,,,,,,
36959,76.0,,,0.0,0.0,0.0,0.0,,2.769616367004346e-05,14.842711448669434,2.8799290657043457,2.3925564289093018,9.570225715637207,0.514459490776062
36960,,,2.7148091248818673e-05,,,,,,,,,,,
36999,77.0,,,,,,,0.337566614151001,,,,,,
37049,77.0,,,,,,,0.21670886874198914,,,,,,
37099,77.0,,,,,,,0.43294620513916016,,,,,,
37149,77.0,,,,,,,0.4131987690925598,,,,,,
37199,77.0,,,,,,,0.4833429753780365,,,,,,
37249,77.0,,,,,,,0.4433134198188782,,,,,,
37299,77.0,,,,,,,0.6041669249534607,,,,,,
37349,77.0,,,,,,,0.40739569067955017,,,,,,
37399,77.0,,,,,,,0.5555753111839294,,,,,,
37439,77.0,,,0.0,0.0,0.0,0.0,,2.7148091248818673e-05,14.37749195098877,2.5033230781555176,2.348249912261963,9.525918960571289,0.5109238624572754
37440,,,2.6599187549436465e-05,,,,,,,,,,,
37449,78.0,,,,,,,0.4223569929599762,,,,,,
37499,78.0,,,,,,,0.48469412326812744,,,,,,
37549,78.0,,,,,,,0.3021185100078583,,,,,,
37599,78.0,,,,,,,0.5379481315612793,,,,,,
37649,78.0,,,,,,,0.332701712846756,,,,,,
37699,78.0,,,,,,,0.4467393159866333,,,,,,
37749,78.0,,,,,,,0.4517296850681305,,,,,,
37799,78.0,,,,,,,0.4898998439311981,,,,,,
37849,78.0,,,,,,,0.4494343400001526,,,,,,
37899,78.0,,,,,,,0.4469401240348816,,,,,,
37919,78.0,,,0.0,0.0,0.0,0.0,,2.6599187549436465e-05,15.130704879760742,2.5476295948028564,2.5254762172698975,10.057598114013672,0.5172834992408752
37920,,,2.6049732696264982e-05,,,,,,,,,,,
37949,79.0,,,,,,,0.30345419049263,,,,,,
37999,79.0,,,,,,,0.4905290901660919,,,,,,
38049,79.0,,,,,,,0.40376585721969604,,,,,,
38099,79.0,,,,,,,0.3411419093608856,,,,,,
38149,79.0,,,,,,,0.3856809437274933,,,,,,
38199,79.0,,,,,,,0.48609811067581177,,,,,,
38249,79.0,,,,,,,0.5151985883712769,,,,,,
38299,79.0,,,,,,,0.32849615812301636,,,,,,
38349,79.0,,,,,,,0.3212246596813202,,,,,,
38399,79.0,,,0.0,0.0,0.0,0.0,0.6785045862197876,2.6049732696264982e-05,14.31103229522705,2.857775926589966,1.9937970638275146,9.45945930480957,0.5009949803352356
38400,,,2.5499999537714757e-05,,,,,,,,,,,
38449,80.0,,,,,,,0.32447952032089233,,,,,,
38499,80.0,,,,,,,0.37496861815452576,,,,,,
38549,80.0,,,,,,,0.38474172353744507,,,,,,
38599,80.0,,,,,,,0.343567430973053,,,,,,
38649,80.0,,,,,,,0.4231441020965576,,,,,,
38699,80.0,,,,,,,0.44738033413887024,,,,,,
38749,80.0,,,,,,,0.3761269450187683,,,,,,
38799,80.0,,,,,,,0.34267953038215637,,,,,,
38849,80.0,,,,,,,0.5208518505096436,,,,,,
38879,80.0,,,0.0,0.0,0.0,0.0,,2.5499999537714757e-05,14.333185195922852,2.5476295948028564,2.1045634746551514,9.680992126464844,0.5149775147438049
38880,,,2.4950268198153935e-05,,,,,,,,,,,
38899,81.0,,,,,,,0.4507066011428833,,,,,,
38949,81.0,,,,,,,0.3697580099105835,,,,,,
38999,81.0,,,,,,,0.4476589560508728,,,,,,
39049,81.0,,,,,,,0.619218111038208,,,,,,
39099,81.0,,,,,,,0.4139138460159302,,,,,,
39149,81.0,,,,,,,0.4963344633579254,,,,,,
39199,81.0,,,,,,,0.5003261566162109,,,,,,
39249,81.0,,,,,,,0.33920785784721375,,,,,,
39299,81.0,,,,,,,0.4609013795852661,,,,,,
39349,81.0,,,,,,,0.3078138828277588,,,,,,
39359,81.0,,,0.0,0.0,0.0,0.0,,2.4950268198153935e-05,14.443952560424805,2.237483501434326,2.5033230781555176,9.703145980834961,0.5088730454444885
39360,,,2.440081152599305e-05,,,,,,,,,,,
39399,82.0,,,,,,,0.4912130832672119,,,,,,
39449,82.0,,,,,,,0.4361594319343567,,,,,,
39499,82.0,,,,,,,0.4408361315727234,,,,,,
39549,82.0,,,,,,,0.38765835762023926,,,,,,
39599,82.0,,,,,,,0.5135002136230469,,,,,,
39649,82.0,,,,,,,0.4256246089935303,,,,,,
39699,82.0,,,,,,,0.3517332375049591,,,,,,
39749,82.0,,,,,,,0.675206184387207,,,,,,
39799,82.0,,,,,,,0.528148889541626,,,,,,
39839,82.0,,,0.0,0.0,0.0,0.0,,2.440081152599305e-05,14.023039817810059,2.259636640548706,2.370403289794922,9.392999649047852,0.49338728189468384
39840,,,2.3851909645600244e-05,,,,,,,,,,,
39849,83.0,,,,,,,0.43987196683883667,,,,,,
39899,83.0,,,,,,,0.4122803211212158,,,,,,
39949,83.0,,,,,,,0.37342315912246704,,,,,,
39999,83.0,,,,,,,0.3891953229904175,,,,,,
40049,83.0,,,,,,,0.39258912205696106,,,,,,
40099,83.0,,,,,,,0.3685840964317322,,,,,,
40149,83.0,,,,,,,0.5272339582443237,,,,,,
40199,83.0,,,,,,,0.43844732642173767,,,,,,
40249,83.0,,,,,,,0.4239926338195801,,,,,,
40299,83.0,,,,,,,0.6063030958175659,,,,,,
40319,83.0,,,0.0,0.0,0.0,0.0,,2.3851909645600244e-05,14.731945037841797,2.5254762172698975,2.4147098064422607,9.79175853729248,0.5148372054100037
40320,,,2.3303837224375457e-05,,,,,,,,,,,
40349,84.0,,,,,,,0.6095672249794006,,,,,,
40399,84.0,,,,,,,0.4665943682193756,,,,,,
40449,84.0,,,,,,,0.4964848756790161,,,,,,
40499,84.0,,,,,,,0.4005405902862549,,,,,,
40549,84.0,,,,,,,0.33106130361557007,,,,,,
40599,84.0,,,,,,,0.34755638241767883,,,,,,
40649,84.0,,,,,,,0.4412027597427368,,,,,,
40699,84.0,,,,,,,0.2969847023487091,,,,,,
40749,84.0,,,,,,,0.40193986892700195,,,,,,
40799,84.0,,,0.0,0.0,0.0,0.0,0.3629368543624878,2.3303837224375457e-05,14.59902572631836,2.724855899810791,2.193176746368408,9.680992126464844,0.5180684328079224
40800,,,2.2756870748708025e-05,,,,,,,,,,,
40849,85.0,,,,,,,0.484732061624527,,,,,,
40899,85.0,,,,,,,0.4058935046195984,,,,,,
40949,85.0,,,,,,,0.40680012106895447,,,,,,
40999,85.0,,,,,,,0.37770330905914307,,,,,,
41049,85.0,,,,,,,0.2970174551010132,,,,,,
41099,85.0,,,,,,,0.5480629205703735,,,,,,
41149,85.0,,,,,,,0.4626551866531372,,,,,,
41199,85.0,,,,,,,0.457811564207077,,,,,,
41249,85.0,,,,,,,0.35349026322364807,,,,,,
41279,85.0,,,0.0,0.0,0.0,0.0,,2.2756870748708025e-05,14.399645805358887,2.4147098064422607,2.9020824432373047,9.082853317260742,0.5052751898765564
41280,,,2.2211284885997884e-05,,,,,,,,,,,
41299,86.0,,,,,,,0.4132362902164459,,,,,,
41349,86.0,,,,,,,0.36059221625328064,,,,,,
41399,86.0,,,,,,,0.39066749811172485,,,,,,
41449,86.0,,,,,,,0.4720723032951355,,,,,,
41499,86.0,,,,,,,0.4775146245956421,,,,,,
41549,86.0,,,,,,,0.289989709854126,,,,,,
41599,86.0,,,,,,,0.3472447991371155,,,,,,
41649,86.0,,,,,,,0.4455833435058594,,,,,,
41699,86.0,,,,,,,0.451677531003952,,,,,,
41749,86.0,,,,,,,0.35021281242370605,,,,,,
41759,86.0,,,0.0,0.0,0.0,0.0,,2.2211284885997884e-05,14.709792137145996,2.702702760696411,2.0381035804748535,9.968985557556152,0.5294619798660278
41760,,,2.1667356122634374e-05,,,,,,,,,,,
41799,87.0,,,,,,,0.3172444701194763,,,,,,
41849,87.0,,,,,,,0.3958727717399597,,,,,,
41899,87.0,,,,,,,0.4141983985900879,,,,,,
41949,87.0,,,,,,,0.5411162972450256,,,,,,
41999,87.0,,,,,,,0.2728120982646942,,,,,,
42049,87.0,,,,,,,0.3346993923187256,,,,,,
42099,87.0,,,,,,,0.3763294219970703,,,,,,
42149,87.0,,,,,,,0.4967154264450073,,,,,,
42199,87.0,,,,,,,0.4642148017883301,,,,,,
42239,87.0,,,0.0,0.0,0.0,0.0,,2.1667356122634374e-05,14.820558547973633,2.680549383163452,2.5476295948028564,9.592379570007324,0.5115960836410522
42240,,,2.1125355488038622e-05,,,,,,,,,,,
42249,88.0,,,,,,,0.5033679008483887,,,,,,
42299,88.0,,,,,,,0.5261116027832031,,,,,,
42349,88.0,,,,,,,0.3753390908241272,,,,,,
42399,88.0,,,,,,,0.49110934138298035,,,,,,
42449,88.0,,,,,,,0.46863922476768494,,,,,,
42499,88.0,,,,,,,0.35595765709877014,,,,,,
42549,88.0,,,,,,,0.6248754262924194,,,,,,
42599,88.0,,,,,,,0.30754560232162476,,,,,,
42649,88.0,,,,,,,0.46429675817489624,,,,,,
42699,88.0,,,,,,,0.49900418519973755,,,,,,
42719,88.0,,,0.0,0.0,0.0,0.0,,2.1125355488038622e-05,14.023039817810059,2.835622549057007,1.9937970638275146,9.193619728088379,0.511350691318512
42720,,,2.0585559468599968e-05,,,,,,,,,,,
42749,89.0,,,,,,,0.44630175828933716,,,,,,
42799,89.0,,,,,,,0.34952253103256226,,,,,,
42849,89.0,,,,,,,0.284061074256897,,,,,,
42899,89.0,,,,,,,0.409767746925354,,,,,,
42949,89.0,,,,,,,0.4410581886768341,,,,,,
42999,89.0,,,,,,,0.42242568731307983,,,,,,
43049,89.0,,,,,,,0.3284476101398468,,,,,,
43099,89.0,,,,,,,0.33285409212112427,,,,,,
43149,89.0,,,,,,,0.4066935181617737,,,,,,
43199,89.0,,,0.0,0.0,0.0,0.0,0.49306389689445496,2.0585559468599968e-05,14.421798706054688,2.348249912261963,2.4368631839752197,9.636686325073242,0.5071496963500977
43200,,,2.0048237274750136e-05,,,,,,,,,,,
43249,90.0,,,,,,,0.3764762580394745,,,,,,
43299,90.0,,,,,,,0.4100612699985504,,,,,,
43349,90.0,,,,,,,0.4702299237251282,,,,,,
43399,90.0,,,,,,,0.35604235529899597,,,,,,
43449,90.0,,,,,,,0.5308873057365417,,,,,,
43499,90.0,,,,,,,0.370901882648468,,,,,,
43549,90.0,,,,,,,0.508521556854248,,,,,,
43599,90.0,,,,,,,0.3613649606704712,,,,,,
43649,90.0,,,,,,,0.3579527735710144,,,,,,
43679,90.0,,,0.0,0.0,0.0,0.0,,2.0048237274750136e-05,14.06734561920166,2.193176746368408,2.6140894889831543,9.260079383850098,0.49404704570770264
43680,,,1.9513659935910255e-05,,,,,,,,,,,
43699,91.0,,,,,,,0.4061896800994873,,,,,,
43749,91.0,,,,,,,0.3330375552177429,,,,,,
43799,91.0,,,,,,,0.3652518391609192,,,,,,
43849,91.0,,,,,,,0.5256890058517456,,,,,,
43899,91.0,,,,,,,0.22980943322181702,,,,,,
43949,91.0,,,,,,,0.4629577100276947,,,,,,
43999,91.0,,,,,,,0.36089593172073364,,,,,,
44049,91.0,,,,,,,0.42132437229156494,,,,,,
44099,91.0,,,,,,,0.4308776259422302,,,,,,
44149,91.0,,,,,,,0.320032000541687,,,,,,
44159,91.0,,,0.0,0.0,0.0,0.0,,1.9513659935910255e-05,14.178112983703613,2.237483501434326,2.259636640548706,9.680992126464844,0.5119814872741699
44160,,,1.898209666251205e-05,,,,,,,,,,,
44199,92.0,,,,,,,0.3562565743923187,,,,,,
44249,92.0,,,,,,,0.3908615708351135,,,,,,
44299,92.0,,,,,,,0.3364090919494629,,,,,,
44349,92.0,,,,,,,0.3993915617465973,,,,,,
44399,92.0,,,,,,,0.39562249183654785,,,,,,
44449,92.0,,,,,,,0.40563446283340454,,,,,,
44499,92.0,,,,,,,0.18995504081249237,,,,,,
44549,92.0,,,,,,,0.44779515266418457,,,,,,
44599,92.0,,,,,,,0.1702343225479126,,,,,,
44639,92.0,,,0.0,0.0,0.0,0.0,,1.898209666251205e-05,13.646432876586914,2.348249912261963,1.9494904279708862,9.348692893981934,0.5031610131263733
44640,,,1.8453816664987244e-05,,,,,,,,,,,
44649,93.0,,,,,,,0.44100919365882874,,,,,,
44699,93.0,,,,,,,0.43202197551727295,,,,,,
44749,93.0,,,,,,,0.390119731426239,,,,,,
44799,93.0,,,,,,,0.42558544874191284,,,,,,
44849,93.0,,,,,,,0.24809637665748596,,,,,,
44899,93.0,,,,,,,0.3237766623497009,,,,,,
44949,93.0,,,,,,,0.388592928647995,,,,,,
44999,93.0,,,,,,,0.37783944606781006,,,,,,
45049,93.0,,,,,,,0.28305894136428833,,,,,,
45099,93.0,,,,,,,0.30671563744544983,,,,,,
45119,93.0,,,0.0,0.0,0.0,0.0,,1.8453816664987244e-05,13.912272453308105,2.1488702297210693,2.3925564289093018,9.370845794677734,0.4889954626560211
45120,,,1.7929083696799353e-05,,,,,,,,,,,
45149,94.0,,,,,,,0.3457121253013611,,,,,,
45199,94.0,,,,,,,0.30187326669692993,,,,,,
45249,94.0,,,,,,,0.33969202637672424,,,,,,
45299,94.0,,,,,,,0.3949684500694275,,,,,,
45349,94.0,,,,,,,0.25600916147232056,,,,,,
45399,94.0,,,,,,,0.4735516309738159,,,,,,
45449,94.0,,,,,,,0.4542233943939209,,,,,,
45499,94.0,,,,,,,0.3006349802017212,,,,,,
45549,94.0,,,,,,,0.4774453938007355,,,,,,
45599,94.0,,,0.0,0.0,0.0,0.0,0.37950026988983154,1.7929083696799353e-05,13.934426307678223,2.370403289794922,2.237483501434326,9.326539993286133,0.5162464380264282
45600,,,1.7408163330401294e-05,,,,,,,,,,,
45649,95.0,,,,,,,0.4008196294307709,,,,,,
45699,95.0,,,,,,,0.4875301718711853,,,,,,
45749,95.0,,,,,,,0.2920689582824707,,,,,,
45799,95.0,,,,,,,0.33854204416275024,,,,,,
45849,95.0,,,,,,,0.46413618326187134,,,,,,
45899,95.0,,,,,,,0.20936986804008484,,,,,,
45949,95.0,,,,,,,0.43937015533447266,,,,,,
45999,95.0,,,,,,,0.34992799162864685,,,,,,
46049,95.0,,,,,,,0.3168349266052246,,,,,,
46079,95.0,,,0.0,0.0,0.0,0.0,,1.7408163330401294e-05,14.266725540161133,2.5033230781555176,2.1488702297210693,9.614532470703125,0.5113321542739868
46080,,,1.6891317500267178e-05,,,,,,,,,,,
46099,96.0,,,,,,,0.35103240609169006,,,,,,
46149,96.0,,,,,,,0.2895910143852234,,,,,,
46199,96.0,,,,,,,0.2986651659011841,,,,,,
46249,96.0,,,,,,,0.42351794242858887,,,,,,
46299,96.0,,,,,,,0.3760799765586853,,,,,,
46349,96.0,,,,,,,0.400448203086853,,,,,,
46399,96.0,,,,,,,0.19461748003959656,,,,,,
46449,96.0,,,,,,,0.3434085249900818,,,,,,
46499,96.0,,,,,,,0.3453052341938019,,,,,,
46549,96.0,,,,,,,0.23794478178024292,,,,,,
46559,96.0,,,0.0,0.0,0.0,0.0,,1.6891317500267178e-05,13.801506042480469,2.193176746368408,2.171023368835449,9.43730640411377,0.5039001703262329
46560,,,1.6378804502892308e-05,,,,,,,,,,,
46599,97.0,,,,,,,0.34687989950180054,,,,,,
46649,97.0,,,,,,,0.39234840869903564,,,,,,
46699,97.0,,,,,,,0.33186912536621094,,,,,,
46749,97.0,,,,,,,0.2760491371154785,,,,,,
46799,97.0,,,,,,,0.4835354685783386,,,,,,
46849,97.0,,,,,,,0.2583293616771698,,,,,,
46899,97.0,,,,,,,0.29691845178604126,,,,,,
46949,97.0,,,,,,,0.3788350224494934,,,,,,
46999,97.0,,,,,,,0.4852840304374695,,,,,,
47039,97.0,,,0.0,0.0,0.0,0.0,,1.6378804502892308e-05,13.336287498474121,2.193176746368408,2.0824103355407715,9.060700416564941,0.49682825803756714
47040,,,1.5870886272750795e-05,,,,,,,,,,,
47049,98.0,,,,,,,0.36729592084884644,,,,,,
47099,98.0,,,,,,,0.33576154708862305,,,,,,
47149,98.0,,,,,,,0.28303730487823486,,,,,,
47199,98.0,,,,,,,0.3392888605594635,,,,,,
47249,98.0,,,,,,,0.25583788752555847,,,,,,
47299,98.0,,,,,,,0.2200385332107544,,,,,,
47349,98.0,,,,,,,0.3082815408706665,,,,,,
47399,98.0,,,,,,,0.4931507706642151,,,,,,
47449,98.0,,,,,,,0.32671433687210083,,,,,,
47499,98.0,,,,,,,0.28559762239456177,,,,,,
47519,98.0,,,0.0,0.0,0.0,0.0,,1.5870886272750795e-05,13.602127075195312,2.303943395614624,2.303943395614624,8.994239807128906,0.49821069836616516
47520,,,1.5367817468359135e-05,,,,,,,,,,,
47549,99.0,,,,,,,0.310502290725708,,,,,,
47599,99.0,,,,,,,0.2897387742996216,,,,,,
47649,99.0,,,,,,,0.29764193296432495,,,,,,
47699,99.0,,,,,,,0.5443307161331177,,,,,,
47749,99.0,,,,,,,0.3770465850830078,,,,,,
47799,99.0,,,,,,,0.2640689015388489,,,,,,
47849,99.0,,,,,,,0.30425208806991577,,,,,,
47899,99.0,,,,,,,0.4833032786846161,,,,,,
47949,99.0,,,,,,,0.3153523802757263,,,,,,
47999,99.0,,,0.0,0.0,0.0,0.0,0.47789689898490906,1.5367817468359135e-05,13.469206809997559,2.4147098064422607,2.0602569580078125,8.994239807128906,0.5019067525863647
48000,,,1.4869848200760316e-05,,,,,,,,,,,
48049,100.0,,,,,,,0.258298397064209,,,,,,
48099,100.0,,,,,,,0.4838661253452301,,,,,,
48149,100.0,,,,,,,0.3523455560207367,,,,,,
48199,100.0,,,,,,,0.35165339708328247,,,,,,
48249,100.0,,,,,,,0.3366708755493164,,,,,,
48299,100.0,,,,,,,0.44295352697372437,,,,,,
48349,100.0,,,,,,,0.337148517370224,,,,,,
48399,100.0,,,,,,,0.37191879749298096,,,,,,
48449,100.0,,,,,,,0.3064389228820801,,,,,,
48479,100.0,,,0.0,0.0,0.0,0.0,,1.4869848200760316e-05,13.447053909301758,2.348249912261963,2.1488702297210693,8.949934005737305,0.4994974732398987
48480,,,1.4377233128470834e-05,,,,,,,,,,,
48499,101.0,,,,,,,0.2695629298686981,,,,,,
48549,101.0,,,,,,,0.24884763360023499,,,,,,
48599,101.0,,,,,,,0.35101425647735596,,,,,,
48649,101.0,,,,,,,0.32283657789230347,,,,,,
48699,101.0,,,,,,,0.4241310954093933,,,,,,
48749,101.0,,,,,,,0.2503965497016907,,,,,,
48799,101.0,,,,,,,0.41422608494758606,,,,,,
48849,101.0,,,,,,,0.2519342005252838,,,,,,
48899,101.0,,,,,,,0.3544512093067169,,,,,,
48949,101.0,,,,,,,0.3211914300918579,,,,,,
48959,101.0,,,0.0,0.0,0.0,0.0,,1.4377233128470834e-05,13.579973220825195,2.1267168521881104,2.4811697006225586,8.972086906433105,0.5020243525505066
48960,,,1.3890217815060169e-05,,,,,,,,,,,
48999,102.0,,,,,,,0.2537182569503784,,,,,,
49049,102.0,,,,,,,0.38904324173927307,,,,,,
49099,102.0,,,,,,,0.5118547081947327,,,,,,
49149,102.0,,,,,,,0.21729612350463867,,,,,,
49199,102.0,,,,,,,0.2296747863292694,,,,,,
49249,102.0,,,,,,,0.28675609827041626,,,,,,
49299,102.0,,,,,,,0.39696747064590454,,,,,,
49349,102.0,,,,,,,0.2920501232147217,,,,,,
49399,102.0,,,,,,,0.21535393595695496,,,,,,
49439,102.0,,,0.0,0.0,0.0,0.0,,1.3890217815060169e-05,13.779353141784668,2.348249912261963,2.303943395614624,9.12716007232666,0.5036695003509521
49440,,,1.3409048733592499e-05,,,,,,,,,,,
49449,103.0,,,,,,,0.48041996359825134,,,,,,
49499,103.0,,,,,,,0.25523337721824646,,,,,,
49549,103.0,,,,,,,0.42110002040863037,,,,,,
49599,103.0,,,,,,,0.4040907621383667,,,,,,
49649,103.0,,,,,,,0.2854364216327667,,,,,,
49699,103.0,,,,,,,0.2975485324859619,,,,,,
49749,103.0,,,,,,,0.41398632526397705,,,,,,
49799,103.0,,,,,,,0.3552161455154419,,,,,,
49849,103.0,,,,,,,0.3031380772590637,,,,,,
49899,103.0,,,,,,,0.1966981440782547,,,,,,
49919,103.0,,,0.0,0.0,0.0,0.0,,1.3409048733592499e-05,13.934426307678223,2.4590163230895996,2.4368631839752197,9.038546562194824,0.5114230513572693
49920,,,1.2933967809658498e-05,,,,,,,,,,,
49949,104.0,,,,,,,0.3890083432197571,,,,,,
49999,104.0,,,,,,,0.36899054050445557,,,,,,
50049,104.0,,,,,,,0.3131144344806671,,,,,,
50099,104.0,,,,,,,0.41047435998916626,,,,,,
50149,104.0,,,,,,,0.4305250644683838,,,,,,
50199,104.0,,,,,,,0.47717714309692383,,,,,,
50249,104.0,,,,,,,0.37326401472091675,,,,,,
50299,104.0,,,,,,,0.22173725068569183,,,,,,
50349,104.0,,,,,,,0.2805647850036621,,,,,,
50399,104.0,,,0.0,0.0,0.0,0.0,0.2210540473461151,1.2933967809658498e-05,13.646432876586914,2.5476295948028564,2.1045634746551514,8.994239807128906,0.5081419348716736
50400,,,1.246521424036473e-05,,,,,,,,,,,
50449,105.0,,,,,,,0.22675663232803345,,,,,,
50499,105.0,,,,,,,0.3332449197769165,,,,,,
50549,105.0,,,,,,,0.17941686511039734,,,,,,
50599,105.0,,,,,,,0.30982139706611633,,,,,,
50649,105.0,,,,,,,0.38955092430114746,,,,,,
50699,105.0,,,,,,,0.30458077788352966,,,,,,
50749,105.0,,,,,,,0.3176988959312439,,,,,,
50799,105.0,,,,,,,0.41657090187072754,,,,,,
50849,105.0,,,,,,,0.34049391746520996,,,,,,
50879,105.0,,,0.0,0.0,0.0,0.0,,1.246521424036473e-05,13.624279975891113,2.193176746368408,2.3925564289093018,9.038546562194824,0.5127864480018616
50880,,,1.2003023584838957e-05,,,,,,,,,,,
50899,106.0,,,,,,,0.19854150712490082,,,,,,
50949,106.0,,,,,,,0.4907940924167633,,,,,,
50999,106.0,,,,,,,0.14767798781394958,,,,,,
51049,106.0,,,,,,,0.31421202421188354,,,,,,
51099,106.0,,,,,,,0.33339637517929077,,,,,,
51149,106.0,,,,,,,0.27200376987457275,,,,,,
51199,106.0,,,,,,,0.40270793437957764,,,,,,
51249,106.0,,,,,,,0.3825022876262665,,,,,,
51299,106.0,,,,,,,0.4436926245689392,,,,,,
51349,106.0,,,,,,,0.21540431678295135,,,,,,
51359,106.0,,,0.0,0.0,0.0,0.0,,1.2003023584838957e-05,13.801506042480469,2.5919361114501953,2.0824103355407715,9.12716007232666,0.5101984143257141
51360,,,1.1547629583219532e-05,,,,,,,,,,,
51399,107.0,,,,,,,0.24548906087875366,,,,,,
51449,107.0,,,,,,,0.33689576387405396,,,,,,
51499,107.0,,,,,,,0.26082268357276917,,,,,,
51549,107.0,,,,,,,0.3102857172489166,,,,,,
51599,107.0,,,,,,,0.2875536382198334,,,,,,
51649,107.0,,,,,,,0.2203170359134674,,,,,,
51699,107.0,,,,,,,0.261557012796402,,,,,,
51749,107.0,,,,,,,0.3316275477409363,,,,,,
51799,107.0,,,,,,,0.2977129817008972,,,,,,
51839,107.0,,,0.0,0.0,0.0,0.0,,1.1547629583219532e-05,13.336287498474121,2.215330123901367,2.1488702297210693,8.972086906433105,0.5049926042556763
51840,,,1.1099261428171303e-05,,,,,,,,,,,
51849,108.0,,,,,,,0.28978821635246277,,,,,,
51899,108.0,,,,,,,0.32830238342285156,,,,,,
51949,108.0,,,,,,,0.41358208656311035,,,,,,
51999,108.0,,,,,,,0.3290870189666748,,,,,,
52049,108.0,,,,,,,0.3656499981880188,,,,,,
52099,108.0,,,,,,,0.24885264039039612,,,,,,
52149,108.0,,,,,,,0.24291512370109558,,,,,,
52199,108.0,,,,,,,0.22687172889709473,,,,,,
52249,108.0,,,,,,,0.3146860599517822,,,,,,
52299,108.0,,,,,,,0.28393715620040894,,,,,,
52319,108.0,,,0.0,0.0,0.0,0.0,,1.1099261428171303e-05,13.757200241088867,2.237483501434326,2.237483501434326,9.282233238220215,0.5079266428947449
52320,,,1.0658143764885608e-05,,,,,,,,,,,
52349,109.0,,,,,,,0.3283922076225281,,,,,,
52399,109.0,,,,,,,0.2219008207321167,,,,,,
52449,109.0,,,,,,,0.21064430475234985,,,,,,
52499,109.0,,,,,,,0.17766228318214417,,,,,,
52549,109.0,,,,,,,0.4065709114074707,,,,,,
52599,109.0,,,,,,,0.23748284578323364,,,,,,
52649,109.0,,,,,,,0.3832639753818512,,,,,,
52699,109.0,,,,,,,0.33228009939193726,,,,,,
52749,109.0,,,,,,,0.4714580476284027,,,,,,
52799,109.0,,,0.0,0.0,0.0,0.0,0.3056609034538269,1.0658143764885608e-05,13.557820320129395,2.215330123901367,2.259636640548706,9.082853317260742,0.5079445838928223
52800,,,1.0224499419564381e-05,,,,,,,,,,,
52849,110.0,,,,,,,0.262346088886261,,,,,,
52899,110.0,,,,,,,0.33302369713783264,,,,,,
52949,110.0,,,,,,,0.42815279960632324,,,,,,
52999,110.0,,,,,,,0.2736870348453522,,,,,,
53049,110.0,,,,,,,0.3177914619445801,,,,,,
53099,110.0,,,,,,,0.2607771158218384,,,,,,
53149,110.0,,,,,,,0.326726496219635,,,,,,
53199,110.0,,,,,,,0.244349867105484,,,,,,
53249,110.0,,,,,,,0.29386401176452637,,,,,,
53279,110.0,,,0.0,0.0,0.0,0.0,,1.0224499419564381e-05,13.757200241088867,2.5033230781555176,2.0602569580078125,9.193619728088379,0.5034433603286743
53280,,,9.79854758043075e-06,,,,,,,,,,,
53299,111.0,,,,,,,0.38290488719940186,,,,,,
53349,111.0,,,,,,,0.2459648847579956,,,,,,
53399,111.0,,,,,,,0.2282988429069519,,,,,,
53449,111.0,,,,,,,0.3153364658355713,,,,,,
53499,111.0,,,,,,,0.34391719102859497,,,,,,
53549,111.0,,,,,,,0.4419422745704651,,,,,,
53599,111.0,,,,,,,0.23278704285621643,,,,,,
53649,111.0,,,,,,,0.3842902183532715,,,,,,
53699,111.0,,,,,,,0.34484681487083435,,,,,,
53749,111.0,,,,,,,0.2700965404510498,,,,,,
53759,111.0,,,0.0,0.0,0.0,0.0,,9.79854758043075e-06,14.06734561920166,2.4811697006225586,2.1045634746551514,9.481613159179688,0.5122119784355164
53760,,,9.380501069244929e-06,,,,,,,,,,,
53799,112.0,,,,,,,0.2314734160900116,,,,,,
53849,112.0,,,,,,,0.3501765727996826,,,,,,
53899,112.0,,,,,,,0.2425868809223175,,,,,,
53949,112.0,,,,,,,0.35944488644599915,,,,,,
53999,112.0,,,,,,,0.40109527111053467,,,,,,
54049,112.0,,,,,,,0.3192480206489563,,,,,,
54099,112.0,,,,,,,0.3776700496673584,,,,,,
54149,112.0,,,,,,,0.25466081500053406,,,,,,
54199,112.0,,,,,,,0.20482298731803894,,,,,,
54239,112.0,,,0.0,0.0,0.0,0.0,,9.380501069244929e-06,13.867966651916504,2.4368631839752197,2.1488702297210693,9.282233238220215,0.5126747488975525
54240,,,8.970571798272431e-06,,,,,,,,,,,
54249,113.0,,,,,,,0.2970953583717346,,,,,,
54299,113.0,,,,,,,0.2263571321964264,,,,,,
54349,113.0,,,,,,,0.20669248700141907,,,,,,
54399,113.0,,,,,,,0.28764450550079346,,,,,,
54449,113.0,,,,,,,0.3749220371246338,,,,,,
54499,113.0,,,,,,,0.19800278544425964,,,,,,
54549,113.0,,,,,,,0.2573835253715515,,,,,,
54599,113.0,,,,,,,0.331556111574173,,,,,,
54649,113.0,,,,,,,0.21340611577033997,,,,,,
54699,113.0,,,,,,,0.32123079895973206,,,,,,
54719,113.0,,,0.0,0.0,0.0,0.0,,8.970571798272431e-06,13.624279975891113,2.348249912261963,2.0824103355407715,9.193619728088379,0.5070039629936218
54720,,,8.568965313315857e-06,,,,,,,,,,,
54749,114.0,,,,,,,0.37839245796203613,,,,,,
54799,114.0,,,,,,,0.37947019934654236,,,,,,
54849,114.0,,,,,,,0.20638790726661682,,,,,,
54899,114.0,,,,,,,0.4792565107345581,,,,,,
54949,114.0,,,,,,,0.21913129091262817,,,,,,
54999,114.0,,,,,,,0.31126880645751953,,,,,,
55049,114.0,,,,,,,0.31815239787101746,,,,,,
55099,114.0,,,,,,,0.44028934836387634,,,,,,
55149,114.0,,,,,,,0.2468072921037674,,,,,,
55199,114.0,,,0.0,0.0,0.0,0.0,0.267456591129303,8.568965313315857e-06,13.579973220825195,2.5476295948028564,1.794417381286621,9.237926483154297,0.514227569103241
55200,,,8.175883522199001e-06,,,,,,,,,,,
55249,115.0,,,,,,,0.276706337928772,,,,,,
55299,115.0,,,,,,,0.24370045959949493,,,,,,
55349,115.0,,,,,,,0.20425380766391754,,,,,,
55399,115.0,,,,,,,0.35710981488227844,,,,,,
55449,115.0,,,,,,,0.2510344684123993,,,,,,
55499,115.0,,,,,,,0.27162736654281616,,,,,,
55549,115.0,,,,,,,0.2722487449645996,,,,,,
55599,115.0,,,,,,,0.49514931440353394,,,,,,
55649,115.0,,,,,,,0.2315484881401062,,,,,,
55679,115.0,,,0.0,0.0,0.0,0.0,,8.175883522199001e-06,13.336287498474121,2.303943395614624,2.0824103355407715,8.949934005737305,0.507225513458252
55680,,,7.791525604261551e-06,,,,,,,,,,,
55699,116.0,,,,,,,0.1459127813577652,,,,,,
55749,116.0,,,,,,,0.2893640697002411,,,,,,
55799,116.0,,,,,,,0.3153405785560608,,,,,,
55849,116.0,,,,,,,0.2742404341697693,,,,,,
55899,116.0,,,,,,,0.32366594672203064,,,,,,
55949,116.0,,,,,,,0.23714454472064972,,,,,,
55999,116.0,,,,,,,0.5800579786300659,,,,,,
56049,116.0,,,,,,,0.5838052034378052,,,,,,
56099,116.0,,,,,,,0.4018557667732239,,,,,,
56149,116.0,,,,,,,0.22604814171791077,,,,,,
56159,116.0,,,0.0,0.0,0.0,0.0,,7.791525604261551e-06,13.668586730957031,2.4590163230895996,2.1267168521881104,9.082853317260742,0.5160156488418579
56160,,,7.416084372380283e-06,,,,,,,,,,,
56199,117.0,,,,,,,0.17970897257328033,,,,,,
56249,117.0,,,,,,,0.31579479575157166,,,,,,
56299,117.0,,,,,,,0.2803301215171814,,,,,,
56349,117.0,,,,,,,0.2057359516620636,,,,,,
56399,117.0,,,,,,,0.2399410903453827,,,,,,
56449,117.0,,,,,,,0.29143035411834717,,,,,,
56499,117.0,,,,,,,0.35113996267318726,,,,,,
56549,117.0,,,,,,,0.32823872566223145,,,,,,
56599,117.0,,,,,,,0.34435558319091797,,,,,,
56639,117.0,,,0.0,0.0,0.0,0.0,,7.416084372380283e-06,13.09260082244873,2.0159504413604736,2.237483501434326,8.839166641235352,0.5116124749183655
56640,,,7.049749001453165e-06,,,,,,,,,,,
56649,118.0,,,,,,,0.46285778284072876,,,,,,
56699,118.0,,,,,,,0.29529064893722534,,,,,,
56749,118.0,,,,,,,0.4090285301208496,,,,,,
56799,118.0,,,,,,,0.3847925662994385,,,,,,
56849,118.0,,,,,,,0.23734983801841736,,,,,,
56899,118.0,,,,,,,0.1959705501794815,,,,,,
56949,118.0,,,,,,,0.2819402813911438,,,,,,
56999,118.0,,,,,,,0.4989207983016968,,,,,,
57049,118.0,,,,,,,0.34553754329681396,,,,,,
57099,118.0,,,,,,,0.24272660911083221,,,,,,
57119,118.0,,,0.0,0.0,0.0,0.0,,7.049749001453165e-06,13.823659896850586,2.237483501434326,2.215330123901367,9.370845794677734,0.5166378021240234
57120,,,6.692703664157307e-06,,,,,,,,,,,
57149,119.0,,,,,,,0.3273977041244507,,,,,,
57199,119.0,,,,,,,0.22437193989753723,,,,,,
57249,119.0,,,,,,,0.37788867950439453,,,,,,
57299,119.0,,,,,,,0.21914637088775635,,,,,,
57349,119.0,,,,,,,0.22387149930000305,,,,,,
57399,119.0,,,,,,,0.20789578557014465,,,,,,
57449,119.0,,,,,,,0.2417450100183487,,,,,,
57499,119.0,,,,,,,0.2564408481121063,,,,,,
57549,119.0,,,,,,,0.21219190955162048,,,,,,
57599,119.0,,,0.0,0.0,0.0,0.0,0.20679263770580292,6.692703664157307e-06,13.602127075195312,2.259636640548706,2.326096534729004,9.016393661499023,0.5067238211631775
57600,,,6.34512889519101e-06,,,,,,,,,,,
57649,120.0,,,,,,,0.2504121661186218,,,,,,
57699,120.0,,,,,,,0.31827959418296814,,,,,,
57749,120.0,,,,,,,0.2658687233924866,,,,,,
57799,120.0,,,,,,,0.26479804515838623,,,,,,
57849,120.0,,,,,,,0.4044506549835205,,,,,,
57899,120.0,,,,,,,0.2364805042743683,,,,,,
57949,120.0,,,,,,,0.2746952474117279,,,,,,
57999,120.0,,,,,,,0.18313254415988922,,,,,,
58049,120.0,,,,,,,0.2751122713088989,,,,,,
58079,120.0,,,0.0,0.0,0.0,0.0,,6.34512889519101e-06,13.668586730957031,2.303943395614624,1.9937970638275146,9.370845794677734,0.5101784467697144
58080,,,6.0071984080423135e-06,,,,,,,,,,,
58099,121.0,,,,,,,0.2895370423793793,,,,,,
58149,121.0,,,,,,,0.3017011880874634,,,,,,
58199,121.0,,,,,,,0.3415825366973877,,,,,,
58249,121.0,,,,,,,0.3702854514122009,,,,,,
58299,121.0,,,,,,,0.15826283395290375,,,,,,
58349,121.0,,,,,,,0.14949887990951538,,,,,,
58399,121.0,,,,,,,0.34677350521087646,,,,,,
58449,121.0,,,,,,,0.29105162620544434,,,,,,
58499,121.0,,,,,,,0.2061576396226883,,,,,,
58549,121.0,,,,,,,0.33695265650749207,,,,,,
58559,121.0,,,0.0,0.0,0.0,0.0,,6.0071984080423135e-06,13.336287498474121,2.1267168521881104,2.326096534729004,8.88347339630127,0.5125425457954407
58560,,,5.679083642462501e-06,,,,,,,,,,,
58599,122.0,,,,,,,0.26114097237586975,,,,,,
58649,122.0,,,,,,,0.22914886474609375,,,,,,
58699,122.0,,,,,,,0.23513765633106232,,,,,,
58749,122.0,,,,,,,0.14999589323997498,,,,,,
58799,122.0,,,,,,,0.3028615415096283,,,,,,
58849,122.0,,,,,,,0.29909008741378784,,,,,,
58899,122.0,,,,,,,0.32074636220932007,,,,,,
58949,122.0,,,,,,,0.2953115403652191,,,,,,
58999,122.0,,,,,,,0.22629284858703613,,,,,,
59039,122.0,,,0.0,0.0,0.0,0.0,,5.679083642462501e-06,13.469206809997559,2.215330123901367,2.0824103355407715,9.171466827392578,0.5132802724838257
59040,,,5.360949216992594e-06,,,,,,,,,,,
59049,123.0,,,,,,,0.23550371825695038,,,,,,
59099,123.0,,,,,,,0.2069961428642273,,,,,,
59149,123.0,,,,,,,0.2557261288166046,,,,,,
59199,123.0,,,,,,,0.2839158773422241,,,,,,
59249,123.0,,,,,,,0.3580676317214966,,,,,,
59299,123.0,,,,,,,0.3841334879398346,,,,,,
59349,123.0,,,,,,,0.1316065788269043,,,,,,
59399,123.0,,,,,,,0.39944857358932495,,,,,,
59449,123.0,,,,,,,0.41424867510795593,,,,,,
59499,123.0,,,,,,,0.3551398813724518,,,,,,
59519,123.0,,,0.0,0.0,0.0,0.0,,5.360949216992594e-06,13.314133644104004,2.237483501434326,2.0159504413604736,9.060700416564941,0.512226402759552
59520,,,5.0529552027001046e-06,,,,,,,,,,,
59549,124.0,,,,,,,0.26503580808639526,,,,,,
59599,124.0,,,,,,,0.3068336248397827,,,,,,
59649,124.0,,,,,,,0.3920913636684418,,,,,,
59699,124.0,,,,,,,0.16041487455368042,,,,,,
59749,124.0,,,,,,,0.19234049320220947,,,,,,
59799,124.0,,,,,,,0.3399064540863037,,,,,,
59849,124.0,,,,,,,0.2045876681804657,,,,,,
59899,124.0,,,,,,,0.3966867923736572,,,,,,
59949,124.0,,,,,,,0.15690311789512634,,,,,,
59999,124.0,,,0.0,0.0,0.0,0.0,0.25873252749443054,5.0529552027001046e-06,13.73504638671875,2.259636640548706,2.370403289794922,9.105006217956543,0.5175681710243225
60000,,,4.755257123179035e-06,,,,,,,,,,,
60049,125.0,,,,,,,0.21950948238372803,,,,,,
60099,125.0,,,,,,,0.2942594587802887,,,,,,
60149,125.0,,,,,,,0.28368687629699707,,,,,,
60199,125.0,,,,,,,0.2728957235813141,,,,,,
60249,125.0,,,,,,,0.395654559135437,,,,,,
60299,125.0,,,,,,,0.28570491075515747,,,,,,
60349,125.0,,,,,,,0.2580828070640564,,,,,,
60399,125.0,,,,,,,0.20662540197372437,,,,,,
60449,125.0,,,,,,,0.27511680126190186,,,,,,
60479,125.0,,,0.0,0.0,0.0,0.0,,4.755257123179035e-06,13.447053909301758,2.348249912261963,2.1488702297210693,8.949934005737305,0.5154678225517273
60480,,,4.468004590307828e-06,,,,,,,,,,,
60499,126.0,,,,,,,0.23145434260368347,,,,,,
60549,126.0,,,,,,,0.1981741487979889,,,,,,
60599,126.0,,,,,,,0.3326760530471802,,,,,,
60649,126.0,,,,,,,0.3293016254901886,,,,,,
60699,126.0,,,,,,,0.28881657123565674,,,,,,
60749,126.0,,,,,,,0.25439339876174927,,,,,,
60799,126.0,,,,,,,0.5602065324783325,,,,,,
60849,126.0,,,,,,,0.29304635524749756,,,,,,
60899,126.0,,,,,,,0.33501192927360535,,,,,,
60949,126.0,,,,,,,0.25836989283561707,,,,,,
60959,126.0,,,0.0,0.0,0.0,0.0,,4.468004590307828e-06,13.42490005493164,2.3925564289093018,2.0159504413604736,9.016393661499023,0.5146874785423279
60960,,,4.191342213744065e-06,,,,,,,,,,,
60999,127.0,,,,,,,0.3198152780532837,,,,,,
61049,127.0,,,,,,,0.34211570024490356,,,,,,
61099,127.0,,,,,,,0.442585825920105,,,,,,
61149,127.0,,,,,,,0.6076118350028992,,,,,,
61199,127.0,,,,,,,0.3376402258872986,,,,,,
61249,127.0,,,,,,,0.32360604405403137,,,,,,
61299,127.0,,,,,,,0.21088539063930511,,,,,,
61349,127.0,,,,,,,0.3197903335094452,,,,,,
61399,127.0,,,,,,,0.3413761854171753,,,,,,
61439,127.0,,,0.0,0.0,0.0,0.0,,4.191342213744065e-06,13.624279975891113,2.4147098064422607,2.237483501434326,8.972086906433105,0.5137014389038086
61440,,,3.925409600924468e-06,,,,,,,,,,,
61449,128.0,,,,,,,0.27566707134246826,,,,,,
61499,128.0,,,,,,,0.23965267837047577,,,,,,
61549,128.0,,,,,,,0.22023093700408936,,,,,,
61599,128.0,,,,,,,0.3059720993041992,,,,,,
61649,128.0,,,,,,,0.22029739618301392,,,,,,
61699,128.0,,,,,,,0.17847472429275513,,,,,,
61749,128.0,,,,,,,0.24960601329803467,,,,,,
61799,128.0,,,,,,,0.4491997957229614,,,,,,
61849,128.0,,,,,,,0.1807178258895874,,,,,,
61899,128.0,,,,,,,0.1768205463886261,,,,,,
61919,128.0,,,0.0,0.0,0.0,0.0,,3.925409600924468e-06,13.380593299865723,2.259636640548706,2.1267168521881104,8.994239807128906,0.5127004384994507
61920,,,3.670340220196522e-06,,,,,,,,,,,
61949,129.0,,,,,,,0.21768075227737427,,,,,,
61999,129.0,,,,,,,0.2171328067779541,,,,,,
62049,129.0,,,,,,,0.3235744833946228,,,,,,
62099,129.0,,,,,,,0.3625568449497223,,,,,,
62149,129.0,,,,,,,0.24251723289489746,,,,,,
62199,129.0,,,,,,,0.26395168900489807,,,,,,
62249,129.0,,,,,,,0.2765568196773529,,,,,,
62299,129.0,,,,,,,0.432096928358078,,,,,,
62349,129.0,,,,,,,0.24759745597839355,,,,,,
62399,129.0,,,0.0,0.0,0.0,0.0,0.26075130701065063,3.670340220196522e-06,13.40274715423584,2.348249912261963,2.0824103355407715,8.972086906433105,0.5130509734153748
62400,,,3.426262765060528e-06,,,,,,,,,,,
62449,130.0,,,,,,,0.3687893748283386,,,,,,
62499,130.0,,,,,,,0.18695873022079468,,,,,,
62549,130.0,,,,,,,0.3604057729244232,,,,,,
62599,130.0,,,,,,,0.25180622935295105,,,,,,
62649,130.0,,,,,,,0.35185205936431885,,,,,,
62699,130.0,,,,,,,0.28248822689056396,,,,,,
62749,130.0,,,,,,,0.2814461588859558,,,,,,
62799,130.0,,,,,,,0.21355320513248444,,,,,,
62849,130.0,,,,,,,0.19098719954490662,,,,,,
62879,130.0,,,0.0,0.0,0.0,0.0,,3.426262765060528e-06,13.40274715423584,2.4590163230895996,1.9937970638275146,8.949934005737305,0.5110349059104919
62880,,,3.193300017301226e-06,,,,,,,,,,,
62899,131.0,,,,,,,0.2141028493642807,,,,,,
62949,131.0,,,,,,,0.329683780670166,,,,,,
62999,131.0,,,,,,,0.24567151069641113,,,,,,
63049,131.0,,,,,,,0.2772219777107239,,,,,,
63099,131.0,,,,,,,0.2548343241214752,,,,,,
63149,131.0,,,,,,,0.29820477962493896,,,,,,
63199,131.0,,,,,,,0.219437837600708,,,,,,
63249,131.0,,,,,,,0.17039746046066284,,,,,,
63299,131.0,,,,,,,0.3632219433784485,,,,,,
63349,131.0,,,,,,,0.27022045850753784,,,,,,
63359,131.0,,,0.0,0.0,0.0,0.0,,3.193300017301226e-06,13.314133644104004,2.3925564289093018,2.0381035804748535,8.88347339630127,0.5161600708961487
63360,,,2.9715695291088196e-06,,,,,,,,,,,
63399,132.0,,,,,,,0.2033328115940094,,,,,,
63449,132.0,,,,,,,0.44893527030944824,,,,,,
63499,132.0,,,,,,,0.3742328882217407,,,,,,
63549,132.0,,,,,,,0.2459045946598053,,,,,,
63599,132.0,,,,,,,0.19404703378677368,,,,,,
63649,132.0,,,,,,,0.30168232321739197,,,,,,
63699,132.0,,,,,,,0.2196841835975647,,,,,,
63749,132.0,,,,,,,0.3126552999019623,,,,,,
63799,132.0,,,,,,,0.23165050148963928,,,,,,
63839,132.0,,,0.0,0.0,0.0,0.0,,2.9715695291088196e-06,13.491360664367676,2.5033230781555176,2.0381035804748535,8.949934005737305,0.5168551206588745
63840,,,2.761182713584276e-06,,,,,,,,,,,
63849,133.0,,,,,,,0.41902416944503784,,,,,,
63899,133.0,,,,,,,0.6573873162269592,,,,,,
63949,133.0,,,,,,,0.1543806791305542,,,,,,
63999,133.0,,,,,,,0.32457590103149414,,,,,,
64049,133.0,,,,,,,0.27574610710144043,,,,,,
64099,133.0,,,,,,,0.2885575294494629,,,,,,
64149,133.0,,,,,,,0.16781611740589142,,,,,,
64199,133.0,,,,,,,0.3194109797477722,,,,,,
64249,133.0,,,,,,,0.31029653549194336,,,,,,
64299,133.0,,,,,,,0.16666077077388763,,,,,,
64319,133.0,,,0.0,0.0,0.0,0.0,,2.761182713584276e-06,13.469206809997559,2.259636640548706,2.1045634746551514,9.105006217956543,0.5186026096343994
64320,,,2.562245754234027e-06,,,,,,,,,,,
64349,134.0,,,,,,,0.31132495403289795,,,,,,
64399,134.0,,,,,,,0.20946842432022095,,,,,,
64449,134.0,,,,,,,0.15672829747200012,,,,,,
64499,134.0,,,,,,,0.399135947227478,,,,,,
64549,134.0,,,,,,,0.15888120234012604,,,,,,
64599,134.0,,,,,,,0.26038995385169983,,,,,,
64649,134.0,,,,,,,0.25559255480766296,,,,,,
64699,134.0,,,,,,,0.34547972679138184,,,,,,
64749,134.0,,,,,,,0.2543579936027527,,,,,,
64799,134.0,,,0.0,0.0,0.0,0.0,0.17392532527446747,2.562245754234027e-06,13.668586730957031,2.3925564289093018,2.0824103355407715,9.193619728088379,0.519791305065155
64800,,,2.3748584681015927e-06,,,,,,,,,,,
64849,135.0,,,,,,,0.4338226914405823,,,,,,
64899,135.0,,,,,,,0.30972856283187866,,,,,,
64949,135.0,,,,,,,0.2740075886249542,,,,,,
64999,135.0,,,,,,,0.2284124344587326,,,,,,
65049,135.0,,,,,,,0.23075075447559357,,,,,,
65099,135.0,,,,,,,0.2535889446735382,,,,,,
65149,135.0,,,,,,,0.2650848627090454,,,,,,
65199,135.0,,,,,,,0.149605393409729,,,,,,
65249,135.0,,,,,,,0.26925623416900635,,,,,,
65279,135.0,,,0.0,0.0,0.0,0.0,,2.3748584681015927e-06,13.136907577514648,2.1488702297210693,2.1488702297210693,8.839166641235352,0.5163880586624146
65280,,,2.199115442635957e-06,,,,,,,,,,,
65299,136.0,,,,,,,0.28929004073143005,,,,,,
65349,136.0,,,,,,,0.23237937688827515,,,,,,
65399,136.0,,,,,,,0.4240039587020874,,,,,,
65449,136.0,,,,,,,0.3384001851081848,,,,,,
65499,136.0,,,,,,,0.30655068159103394,,,,,,
65549,136.0,,,,,,,0.3654647171497345,,,,,,
65599,136.0,,,,,,,0.13312727212905884,,,,,,
65649,136.0,,,,,,,0.15000222623348236,,,,,,
65699,136.0,,,,,,,0.25822713971138,,,,,,
65749,136.0,,,,,,,0.20975753664970398,,,,,,
65759,136.0,,,0.0,0.0,0.0,0.0,,2.199115442635957e-06,13.181214332580566,2.215330123901367,2.171023368835449,8.79486083984375,0.5160004496574402
65760,,,2.0351048988231923e-06,,,,,,,,,,,
65799,137.0,,,,,,,0.2976223826408386,,,,,,
65849,137.0,,,,,,,0.33433663845062256,,,,,,
65899,137.0,,,,,,,0.16503727436065674,,,,,,
65949,137.0,,,,,,,0.26072055101394653,,,,,,
65999,137.0,,,,,,,0.335111141204834,,,,,,
66049,137.0,,,,,,,0.19003722071647644,,,,,,
66099,137.0,,,,,,,0.3901102840900421,,,,,,
66149,137.0,,,,,,,0.18507573008537292,,,,,,
66199,137.0,,,,,,,0.3019145429134369,,,,,,
66239,137.0,,,0.0,0.0,0.0,0.0,,2.0351048988231923e-06,13.447053909301758,2.215330123901367,2.193176746368408,9.038546562194824,0.5178568363189697
66240,,,1.8829099417416728e-06,,,,,,,,,,,
66249,138.0,,,,,,,0.17247024178504944,,,,,,
66299,138.0,,,,,,,0.24950256943702698,,,,,,
66349,138.0,,,,,,,0.1846175342798233,,,,,,
66399,138.0,,,,,,,0.2353985607624054,,,,,,
66449,138.0,,,,,,,0.29209956526756287,,,,,,
66499,138.0,,,,,,,0.2199404537677765,,,,,,
66549,138.0,,,,,,,0.1773114800453186,,,,,,
66599,138.0,,,,,,,0.3930480182170868,,,,,,
66649,138.0,,,,,,,0.3136745095252991,,,,,,
66699,138.0,,,,,,,0.3143053948879242,,,,,,
66719,138.0,,,0.0,0.0,0.0,0.0,,1.8829099417416728e-06,13.513513565063477,2.370403289794922,2.171023368835449,8.972086906433105,0.5158335566520691
66720,,,1.742606741572672e-06,,,,,,,,,,,
66749,139.0,,,,,,,0.18228474259376526,,,,,,
66799,139.0,,,,,,,0.17313407361507416,,,,,,
66849,139.0,,,,,,,0.22666653990745544,,,,,,
66899,139.0,,,,,,,0.24303209781646729,,,,,,
66949,139.0,,,,,,,0.3581354320049286,,,,,,
66999,139.0,,,,,,,0.2655794620513916,,,,,,
67049,139.0,,,,,,,0.3086880147457123,,,,,,
67099,139.0,,,,,,,0.20171181857585907,,,,,,
67149,139.0,,,,,,,0.24233302474021912,,,,,,
67199,139.0,,,0.0,0.0,0.0,0.0,0.5390880107879639,1.742606741572672e-06,13.314133644104004,2.281790018081665,2.1488702297210693,8.88347339630127,0.5164172053337097
67200,,,1.6142661252160906e-06,,,,,,,,,,,
67249,140.0,,,,,,,0.2133217751979828,,,,,,
67299,140.0,,,,,,,0.24584612250328064,,,,,,
67349,140.0,,,,,,,0.3150913119316101,,,,,,
67399,140.0,,,,,,,0.25419822335243225,,,,,,
67449,140.0,,,,,,,0.2192223221063614,,,,,,
67499,140.0,,,,,,,0.2785044312477112,,,,,,
67549,140.0,,,,,,,0.2654148042201996,,,,,,
67599,140.0,,,,,,,0.2514365315437317,,,,,,
67649,140.0,,,,,,,0.188652902841568,,,,,,
67679,140.0,,,0.0,0.0,0.0,0.0,,1.6142661252160906e-06,13.247673988342285,2.370403289794922,2.1267168521881104,8.750554084777832,0.5122683048248291
67680,,,1.497952780482592e-06,,,,,,,,,,,
67699,141.0,,,,,,,0.2641555070877075,,,,,,
67749,141.0,,,,,,,0.3051283359527588,,,,,,
67799,141.0,,,,,,,0.2302461713552475,,,,,,
67849,141.0,,,,,,,0.2559027075767517,,,,,,
67899,141.0,,,,,,,0.10737772285938263,,,,,,
67949,141.0,,,,,,,0.37118422985076904,,,,,,
67999,141.0,,,,,,,0.2438669204711914,,,,,,
68049,141.0,,,,,,,0.2917237877845764,,,,,,
68099,141.0,,,,,,,0.2854291498661041,,,,,,
68149,141.0,,,,,,,0.2362545132637024,,,,,,
68159,141.0,,,0.0,0.0,0.0,0.0,,1.497952780482592e-06,13.09260082244873,2.303943395614624,2.1045634746551514,8.684093475341797,0.5100699067115784
68160,,,1.3937250287199276e-06,,,,,,,,,,,
68199,142.0,,,,,,,0.2444588541984558,,,,,,
68249,142.0,,,,,,,0.20726747810840607,,,,,,
68299,142.0,,,,,,,0.3559894263744354,,,,,,
68349,142.0,,,,,,,0.3243322968482971,,,,,,
68399,142.0,,,,,,,0.30904901027679443,,,,,,
68449,142.0,,,,,,,0.2865235209465027,,,,,,
68499,142.0,,,,,,,0.26119470596313477,,,,,,
68549,142.0,,,,,,,0.18723726272583008,,,,,,
68599,142.0,,,,,,,0.20152060687541962,,,,,,
68639,142.0,,,0.0,0.0,0.0,0.0,,1.3937250287199276e-06,13.513513565063477,2.370403289794922,2.1267168521881104,9.016393661499023,0.5152066349983215
68640,,,1.3016356206208002e-06,,,,,,,,,,,
68649,143.0,,,,,,,0.2507796287536621,,,,,,
68699,143.0,,,,,,,0.2281944453716278,,,,,,
68749,143.0,,,,,,,0.2139805555343628,,,,,,
68799,143.0,,,,,,,0.18158747255802155,,,,,,
68849,143.0,,,,,,,0.3035097122192383,,,,,,
68899,143.0,,,,,,,0.2973358929157257,,,,,,
68949,143.0,,,,,,,0.18503539264202118,,,,,,
68999,143.0,,,,,,,0.15942326188087463,,,,,,
69049,143.0,,,,,,,0.4107857048511505,,,,,,
69099,143.0,,,,,,,0.3008112907409668,,,,,,
69119,143.0,,,0.0,0.0,0.0,0.0,,1.3016356206208002e-06,13.336287498474121,2.237483501434326,2.1045634746551514,8.994239807128906,0.513392984867096
69120,,,1.2217308267281624e-06,,,,,,,,,,,
69149,144.0,,,,,,,0.21988879144191742,,,,,,
69199,144.0,,,,,,,0.24926349520683289,,,,,,
69249,144.0,,,,,,,0.18313242495059967,,,,,,
69299,144.0,,,,,,,0.29645049571990967,,,,,,
69349,144.0,,,,,,,0.379416286945343,,,,,,
69399,144.0,,,,,,,0.20423157513141632,,,,,,
69449,144.0,,,,,,,0.1903238594532013,,,,,,
69499,144.0,,,,,,,0.20045973360538483,,,,,,
69549,144.0,,,,,,,0.2864453196525574,,,,,,
69599,144.0,,,0.0,0.0,0.0,0.0,0.21339067816734314,1.2217308267281624e-06,13.15906047821045,2.348249912261963,2.1488702297210693,8.661940574645996,0.5142598152160645
69600,,,1.1540508921825676e-06,,,,,,,,,,,
69649,145.0,,,,,,,0.2515302896499634,,,,,,
69699,145.0,,,,,,,0.3212604820728302,,,,,,
69749,145.0,,,,,,,0.21745869517326355,,,,,,
69799,145.0,,,,,,,0.33243006467819214,,,,,,
69849,145.0,,,,,,,0.33022797107696533,,,,,,
69899,145.0,,,,,,,0.25763607025146484,,,,,,
69949,145.0,,,,,,,0.2919842004776001,,,,,,
69999,145.0,,,,,,,0.2095155417919159,,,,,,
70049,145.0,,,,,,,0.40901094675064087,,,,,,
70079,145.0,,,0.0,0.0,0.0,0.0,,1.1540508921825676e-06,13.491360664367676,2.326096534729004,2.1488702297210693,9.016393661499023,0.5134329199790955
70080,,,1.0986298093484947e-06,,,,,,,,,,,
70099,146.0,,,,,,,0.4150708019733429,,,,,,
70149,146.0,,,,,,,0.3138243556022644,,,,,,
70199,146.0,,,,,,,0.3067074716091156,,,,,,
70249,146.0,,,,,,,0.2875513434410095,,,,,,
70299,146.0,,,,,,,0.1875683218240738,,,,,,
70349,146.0,,,,,,,0.3316786289215088,,,,,,
70399,146.0,,,,,,,0.26681646704673767,,,,,,
70449,146.0,,,,,,,0.16048204898834229,,,,,,
70499,146.0,,,,,,,0.282831072807312,,,,,,
70549,146.0,,,,,,,0.23991909623146057,,,,,,
70559,146.0,,,0.0,0.0,0.0,0.0,,1.0986298093484947e-06,13.09260082244873,2.215330123901367,2.0824103355407715,8.79486083984375,0.5152531266212463
70560,,,1.0554955451880232e-06,,,,,,,,,,,
70599,147.0,,,,,,,0.24913355708122253,,,,,,
70649,147.0,,,,,,,0.2725081443786621,,,,,,
70699,147.0,,,,,,,0.25727832317352295,,,,,,
70749,147.0,,,,,,,0.1904098093509674,,,,,,
70799,147.0,,,,,,,0.1967175006866455,,,,,,
70849,147.0,,,,,,,0.27025383710861206,,,,,,
70899,147.0,,,,,,,0.27648115158081055,,,,,,
70949,147.0,,,,,,,0.26080992817878723,,,,,,
70999,147.0,,,,,,,0.40652117133140564,,,,,,
71039,147.0,,,0.0,0.0,0.0,0.0,,1.0554955451880232e-06,13.380593299865723,2.215330123901367,2.1488702297210693,9.016393661499023,0.5131009221076965
71040,,,1.024669813887158e-06,,,,,,,,,,,
71049,148.0,,,,,,,0.24225139617919922,,,,,,
71099,148.0,,,,,,,0.21428467333316803,,,,,,
71149,148.0,,,,,,,0.3627105951309204,,,,,,
71199,148.0,,,,,,,0.25370749831199646,,,,,,
71249,148.0,,,,,,,0.2612779140472412,,,,,,
71299,148.0,,,,,,,0.17643024027347565,,,,,,
71349,148.0,,,,,,,0.1919347643852234,,,,,,
71399,148.0,,,,,,,0.20445501804351807,,,,,,
71449,148.0,,,,,,,0.19345170259475708,,,,,,
71499,148.0,,,,,,,0.39460137486457825,,,,,,
71519,148.0,,,0.0,0.0,0.0,0.0,,1.024669813887158e-06,13.048294067382812,2.259636640548706,2.0381035804748535,8.750554084777832,0.5163679718971252
71520,,,1.0061681905426667e-06,,,,,,,,,,,
71549,149.0,,,,,,,0.2694169878959656,,,,,,
71599,149.0,,,,,,,0.3058094382286072,,,,,,
71649,149.0,,,,,,,0.30677661299705505,,,,,,
71699,149.0,,,,,,,0.22659099102020264,,,,,,
71749,149.0,,,,,,,0.3242447078227997,,,,,,
71799,149.0,,,,,,,0.24739433825016022,,,,,,
71849,149.0,,,,,,,0.2678070366382599,,,,,,
71899,149.0,,,,,,,0.2626298666000366,,,,,,
71949,149.0,,,,,,,0.21710795164108276,,,,,,
71999,149.0,,,0.0,0.0,0.0,0.0,0.29275012016296387,1.0061681905426667e-06,13.491360664367676,2.259636640548706,2.237483501434326,8.994239807128906,0.5168983340263367
72000,150.0,,,,,,,,,13.048294067382812,2.259636640548706,2.0381035804748535,8.750554084777832,0.5163679718971252
