step,epoch,hp_metric,lr-Adam,train/CER,train/DER,train/IER,train/SER,train/loss,train/lr,val/CER,val/DER,val/IER,val/SER,val/loss
0,,-1.0,,,,,,,,,,,,
6720,,,4.940996223012917e-05,,,,,,,,,,,
6749,14.0,,,,,,,1.892179250717163,,,,,,
6799,14.0,,,,,,,1.877269983291626,,,,,,
6849,14.0,,,,,,,2.0973193645477295,,,,,,
6899,14.0,,,,,,,1.9413293600082397,,,,,,
6949,14.0,,,,,,,1.9811575412750244,,,,,,
6999,14.0,,,,,,,2.0761823654174805,,,,,,
7049,14.0,,,,,,,2.0302042961120605,,,,,,
7099,14.0,,,,,,,1.8846287727355957,,,,,,
7149,14.0,,,,,,,2.295620918273926,,,,,,
7199,14.0,,,0.0,0.0,0.0,0.0,1.5610971450805664,4.999999873689376e-05,89.96455383300781,0.0,89.67655944824219,0.287992924451828,1.7927515506744385
7200,,,4.932306183036417e-05,,,,,,,,,,,
7249,15.0,,,,,,,1.918971300125122,,,,,,
7299,15.0,,,,,,,1.9531903266906738,,,,,,
7349,15.0,,,,,,,1.83573579788208,,,,,,
7399,15.0,,,,,,,1.9722580909729004,,,,,,
7449,15.0,,,,,,,2.0993151664733887,,,,,,
7499,15.0,,,,,,,2.1457290649414062,,,,,,
7549,15.0,,,,,,,1.854382038116455,,,,,,
7599,15.0,,,,,,,1.8678276538848877,,,,,,
7649,15.0,,,,,,,1.9328993558883667,,,,,,
7679,15.0,,,0.0,0.0,0.0,0.0,,4.999999873689376e-05,86.19849395751953,0.0,85.79973602294922,0.3987594246864319,1.6654962301254272
7680,,,4.9230286094825715e-05,,,,,,,,,,,
7699,16.0,,,,,,,1.9420137405395508,,,,,,
7749,16.0,,,,,,,1.8327959775924683,,,,,,
7799,16.0,,,,,,,1.8299899101257324,,,,,,
7849,16.0,,,,,,,1.9217147827148438,,,,,,
7899,16.0,,,,,,,1.7222951650619507,,,,,,
7949,16.0,,,,,,,1.783965826034546,,,,,,
7999,16.0,,,,,,,1.754608154296875,,,,,,
8049,16.0,,,,,,,2.144679307937622,,,,,,
8099,16.0,,,,,,,2.0433883666992188,,,,,,
8149,16.0,,,,,,,1.8024041652679443,,,,,,
8159,16.0,,,0.0,0.0,0.0,0.0,,4.999999873689376e-05,85.04652404785156,0.0,84.581298828125,0.46521931886672974,1.6880931854248047
8160,,,4.913165685138665e-05,,,,,,,,,,,
8199,17.0,,,,,,,2.3054213523864746,,,,,,
8249,17.0,,,,,,,1.944852590560913,,,,,,
8299,17.0,,,,,,,1.7581415176391602,,,,,,
8349,17.0,,,,,,,1.9650471210479736,,,,,,
8399,17.0,,,,,,,2.124502420425415,,,,,,
8449,17.0,,,,,,,1.8496572971343994,,,,,,
8499,17.0,,,,,,,1.8103575706481934,,,,,,
8549,17.0,,,,,,,1.9012056589126587,,,,,,
8599,17.0,,,,,,,1.9117732048034668,,,,,,
8639,17.0,,,0.0,0.0,0.0,0.0,,4.999999873689376e-05,81.76782989501953,0.0,80.94815826416016,0.8196721076965332,1.6497747898101807
8640,,,4.902719592791982e-05,,,,,,,,,,,
8649,18.0,,,,,,,1.802506923675537,,,,,,
8699,18.0,,,,,,,1.626668930053711,,,,,,
8749,18.0,,,,,,,1.7026220560073853,,,,,,
8799,18.0,,,,,,,1.87192964553833,,,,,,
8849,18.0,,,,,,,1.7110717296600342,,,,,,
8899,18.0,,,,,,,1.5815449953079224,,,,,,
8949,18.0,,,,,,,2.2234911918640137,,,,,,
8999,18.0,,,,,,,1.9258003234863281,,,,,,
9049,18.0,,,,,,,1.709385633468628,,,,,,
9099,18.0,,,,,,,1.9987690448760986,,,,,,
9119,18.0,,,0.0,0.0,0.0,0.0,,4.999999873689376e-05,82.27735900878906,0.022153301164507866,81.6792221069336,0.575985848903656,1.6184839010238647
9120,,,4.891692879027687e-05,,,,,,,,,,,
9149,19.0,,,,,,,1.8878822326660156,,,,,,
9199,19.0,,,,,,,1.7277181148529053,,,,,,
9249,19.0,,,,,,,1.8338909149169922,,,,,,
9299,19.0,,,,,,,1.7081407308578491,,,,,,
9349,19.0,,,,,,,1.7631927728652954,,,,,,
9399,19.0,,,,,,,1.5828686952590942,,,,,,
9449,19.0,,,,,,,1.8191919326782227,,,,,,
9499,19.0,,,,,,,1.7565357685089111,,,,,,
9549,19.0,,,,,,,1.5890841484069824,,,,,,
9599,19.0,,,0.0,0.0,0.0,0.0,1.306294322013855,4.999999873689376e-05,80.70447540283203,0.022153301164507866,79.72972869873047,0.9525919556617737,1.572860836982727
9600,,,4.880088454228826e-05,,,,,,,,,,,
9649,20.0,,,,,,,1.8887383937835693,,,,,,
9699,20.0,,,,,,,1.5620131492614746,,,,,,
9749,20.0,,,,,,,1.6263728141784668,,,,,,
9799,20.0,,,,,,,1.706594705581665,,,,,,
9849,20.0,,,,,,,1.787908911705017,,,,,,
9899,20.0,,,,,,,1.7376058101654053,,,,,,
9949,20.0,,,,,,,1.9527605772018433,,,,,,
9999,20.0,,,,,,,1.9678106307983398,,,,,,
10049,20.0,,,,,,,1.6846730709075928,,,,,,
10079,20.0,,,0.0,0.0,0.0,0.0,,4.999999873689376e-05,74.25786590576172,0.04430660232901573,72.24191284179688,1.9716438055038452,1.4876827001571655
10080,,,4.867909228778444e-05,,,,,,,,,,,
10099,21.0,,,,,,,1.7184059619903564,,,,,,
10149,21.0,,,,,,,1.8669227361679077,,,,,,
10199,21.0,,,,,,,1.7331604957580566,,,,,,
10249,21.0,,,,,,,1.8242104053497314,,,,,,
10299,21.0,,,,,,,1.6488854885101318,,,,,,
10349,21.0,,,,,,,1.853515386581421,,,,,,
10399,21.0,,,,,,,1.465057373046875,,,,,,
10449,21.0,,,,,,,1.7090239524841309,,,,,,
10499,21.0,,,,,,,1.5058276653289795,,,,,,
10549,21.0,,,,,,,1.4409379959106445,,,,,,
10559,21.0,,,0.0,0.0,0.0,0.0,,4.999999873689376e-05,69.38414001464844,0.04430660232901573,65.88391876220703,3.4559149742126465,1.4227014780044556
10560,,,4.855157749261707e-05,,,,,,,,,,,
10599,22.0,,,,,,,1.8313701152801514,,,,,,
10649,22.0,,,,,,,1.5615119934082031,,,,,,
10699,22.0,,,,,,,1.7206666469573975,,,,,,
10749,22.0,,,,,,,1.6136503219604492,,,,,,
10799,22.0,,,,,,,1.8660602569580078,,,,,,
10849,22.0,,,,,,,1.599069356918335,,,,,,
10899,22.0,,,,,,,1.8079090118408203,,,,,,
10949,22.0,,,,,,,1.7596347332000732,,,,,,
10999,22.0,,,,,,,1.7832852602005005,,,,,,
11039,22.0,,,0.0,0.0,0.0,0.0,,4.999999873689376e-05,63.31413269042969,0.1550731062889099,58.08595657348633,5.073105812072754,1.4362894296646118
11040,,,4.841838017455302e-05,,,,,,,,,,,
11049,23.0,,,,,,,1.492910385131836,,,,,,
11099,23.0,,,,,,,1.5595521926879883,,,,,,
11149,23.0,,,,,,,1.4577360153198242,,,,,,
11199,23.0,,,,,,,1.6562590599060059,,,,,,
11249,23.0,,,,,,,1.7361371517181396,,,,,,
11299,23.0,,,,,,,1.675281286239624,,,,,,
11349,23.0,,,,,,,1.5354095697402954,,,,,,
11399,23.0,,,,,,,1.575391411781311,,,,,,
11449,23.0,,,,,,,1.809255599975586,,,,,,
11499,23.0,,,,,,,1.7566604614257812,,,,,,
11519,23.0,,,0.0,0.0,0.0,0.0,,4.999999873689376e-05,59.76960754394531,0.24368630349636078,53.36730194091797,6.1586174964904785,1.3513447046279907
11520,,,4.827952216146514e-05,,,,,,,,,,,
11549,24.0,,,,,,,1.6180381774902344,,,,,,
11599,24.0,,,,,,,1.590293526649475,,,,,,
11649,24.0,,,,,,,1.4566562175750732,,,,,,
11699,24.0,,,,,,,1.7228327989578247,,,,,,
11749,24.0,,,,,,,1.4435949325561523,,,,,,
11799,24.0,,,,,,,1.4859402179718018,,,,,,
11849,24.0,,,,,,,1.5394777059555054,,,,,,
11899,24.0,,,,,,,1.524625301361084,,,,,,
11949,24.0,,,,,,,1.793796420097351,,,,,,
11999,24.0,,,0.0,0.0,0.0,0.0,1.3108594417572021,4.999999873689376e-05,58.61763381958008,0.06645990163087845,52.37040328979492,6.1807708740234375,1.3372862339019775
12000,,,4.8135047109099105e-05,,,,,,,,,,,
12049,25.0,,,,,,,1.6453423500061035,,,,,,
12099,25.0,,,,,,,1.3842685222625732,,,,,,
12149,25.0,,,,,,,1.649962306022644,,,,,,
12199,25.0,,,,,,,1.6694247722625732,,,,,,
12249,25.0,,,,,,,1.7408688068389893,,,,,,
12299,25.0,,,,,,,1.733863115310669,,,,,,
12349,25.0,,,,,,,1.692213535308838,,,,,,
12399,25.0,,,,,,,1.4545557498931885,,,,,,
12449,25.0,,,,,,,1.4563226699829102,,,,,,
12479,25.0,,,0.0,0.0,0.0,0.0,,4.999999873689376e-05,52.43686294555664,0.33229950070381165,43.42047119140625,8.684093475341797,1.2843639850616455
12480,,,4.7984987759264186e-05,,,,,,,,,,,
12499,26.0,,,,,,,1.3980653285980225,,,,,,
12549,26.0,,,,,,,1.4564900398254395,,,,,,
12599,26.0,,,,,,,1.5180401802062988,,,,,,
12649,26.0,,,,,,,1.2938560247421265,,,,,,
12699,26.0,,,,,,,1.6314265727996826,,,,,,
12749,26.0,,,,,,,1.5280981063842773,,,,,,
12799,26.0,,,,,,,1.5334641933441162,,,,,,
12849,26.0,,,,,,,1.808496117591858,,,,,,
12899,26.0,,,,,,,1.5374648571014404,,,,,,
12949,26.0,,,,,,,1.2635877132415771,,,,,,
12959,26.0,,,0.0,0.0,0.0,0.0,,4.999999873689376e-05,52.525474548339844,0.2658396065235138,44.81612777709961,7.443509101867676,1.24749755859375
12960,,,4.782938049174845e-05,,,,,,,,,,,
12999,27.0,,,,,,,1.6136459112167358,,,,,,
13049,27.0,,,,,,,1.339350938796997,,,,,,
13099,27.0,,,,,,,1.6586076021194458,,,,,,
13149,27.0,,,,,,,1.4821608066558838,,,,,,
13199,27.0,,,,,,,1.4067356586456299,,,,,,
13249,27.0,,,,,,,1.5376042127609253,,,,,,
13299,27.0,,,,,,,1.5815982818603516,,,,,,
13349,27.0,,,,,,,1.541825771331787,,,,,,
13399,27.0,,,,,,,1.4405767917633057,,,,,,
13439,27.0,,,0.0,0.0,0.0,0.0,,4.999999873689376e-05,52.12671661376953,0.35445281863212585,42.667259216308594,9.105006217956543,1.3030647039413452
13440,,,4.7668261686339974e-05,,,,,,,,,,,
13449,28.0,,,,,,,1.4225962162017822,,,,,,
13499,28.0,,,,,,,1.3251045942306519,,,,,,
13549,28.0,,,,,,,1.537584662437439,,,,,,
13599,28.0,,,,,,,1.4751274585723877,,,,,,
13649,28.0,,,,,,,1.472546100616455,,,,,,
13699,28.0,,,,,,,1.41299569606781,,,,,,
13749,28.0,,,,,,,1.367160677909851,,,,,,
13799,28.0,,,,,,,1.7624567747116089,,,,,,
13849,28.0,,,,,,,1.4683737754821777,,,,,,
13899,28.0,,,,,,,1.5005254745483398,,,,,,
13919,28.0,,,0.0,0.0,0.0,0.0,,4.999999873689376e-05,46.964996337890625,0.6202924251556396,35.09082794189453,11.253876686096191,1.2070249319076538
13920,,,4.750167499878444e-05,,,,,,,,,,,
13949,29.0,,,,,,,1.8953890800476074,,,,,,
13999,29.0,,,,,,,1.6892707347869873,,,,,,
14049,29.0,,,,,,,1.411715030670166,,,,,,
14099,29.0,,,,,,,1.1579344272613525,,,,,,
14149,29.0,,,,,,,1.439971923828125,,,,,,
14199,29.0,,,,,,,2.0507893562316895,,,,,,
14249,29.0,,,,,,,1.1071339845657349,,,,,,
14299,29.0,,,,,,,1.567954182624817,,,,,,
14349,29.0,,,,,,,1.757888913154602,,,,,,
14399,29.0,,,0.0,0.0,0.0,0.0,1.285837173461914,4.999999873689376e-05,46.27824401855469,0.6202924251556396,36.66371154785156,8.994239807128906,1.1839934587478638
14400,,,4.732966044684872e-05,,,,,,,,,,,
14449,30.0,,,,,,,1.9369176626205444,,,,,,
14499,30.0,,,,,,,1.4222326278686523,,,,,,
14549,30.0,,,,,,,1.5862969160079956,,,,,,
14599,30.0,,,,,,,1.4194849729537964,,,,,,
14649,30.0,,,,,,,1.3834326267242432,,,,,,
14699,30.0,,,,,,,1.399451494216919,,,,,,
14749,30.0,,,,,,,1.4737744331359863,,,,,,
14799,30.0,,,,,,,1.2834484577178955,,,,,,
14849,30.0,,,,,,,1.498788595199585,,,,,,
14879,30.0,,,0.0,0.0,0.0,0.0,,4.999999873689376e-05,46.123172760009766,0.48737260699272156,36.309261322021484,9.326539993286133,1.1688759326934814
14880,,,4.71522580482997e-05,,,,,,,,,,,
14899,31.0,,,,,,,1.131311058998108,,,,,,
14949,31.0,,,,,,,1.246346116065979,,,,,,
14999,31.0,,,,,,,1.2735612392425537,,,,,,
15049,31.0,,,,,,,1.3966577053070068,,,,,,
15099,31.0,,,,,,,1.18352472782135,,,,,,
15149,31.0,,,,,,,1.4071004390716553,,,,,,
15199,31.0,,,,,,,1.4871604442596436,,,,,,
15249,31.0,,,,,,,1.4651265144348145,,,,,,
15299,31.0,,,,,,,1.3825503587722778,,,,,,
15349,31.0,,,,,,,1.759316325187683,,,,,,
15359,31.0,,,0.0,0.0,0.0,0.0,,4.999999873689376e-05,43.3097038269043,0.5538325309753418,31.103235244750977,11.652636528015137,1.151293158531189
15360,,,4.696951509686187e-05,,,,,,,,,,,
15399,32.0,,,,,,,1.6442209482192993,,,,,,
15449,32.0,,,,,,,1.4263683557510376,,,,,,
15499,32.0,,,,,,,1.6943424940109253,,,,,,
15549,32.0,,,,,,,1.3495043516159058,,,,,,
15599,32.0,,,,,,,1.7146867513656616,,,,,,
15649,32.0,,,,,,,1.32167649269104,,,,,,
15699,32.0,,,,,,,1.5710856914520264,,,,,,
15749,32.0,,,,,,,1.239148497581482,,,,,,
15799,32.0,,,,,,,1.7281535863876343,,,,,,
15839,32.0,,,0.0,0.0,0.0,0.0,,4.999999873689376e-05,42.60079574584961,0.7753655314445496,31.590606689453125,10.234825134277344,1.1393284797668457
15840,,,4.6781471610302106e-05,,,,,,,,,,,
15849,33.0,,,,,,,1.4492592811584473,,,,,,
15899,33.0,,,,,,,1.2041149139404297,,,,,,
15949,33.0,,,,,,,1.2280489206314087,,,,,,
15999,33.0,,,,,,,1.625770092010498,,,,,,
16049,33.0,,,,,,,1.554882526397705,,,,,,
16099,33.0,,,,,,,1.3512208461761475,,,,,,
16149,33.0,,,,,,,1.2401072978973389,,,,,,
16199,33.0,,,,,,,1.4542644023895264,,,,,,
16249,33.0,,,,,,,1.557809829711914,,,,,,
16299,33.0,,,,,,,1.3337632417678833,,,,,,
16319,33.0,,,0.0,0.0,0.0,0.0,,4.999999873689376e-05,41.84758377075195,0.7975188493728638,30.28356170654297,10.766504287719727,1.1452593803405762
16320,,,4.658817852032371e-05,,,,,,,,,,,
16349,34.0,,,,,,,1.368499994277954,,,,,,
16399,34.0,,,,,,,1.6060676574707031,,,,,,
16449,34.0,,,,,,,1.4526841640472412,,,,,,
16499,34.0,,,,,,,1.5243765115737915,,,,,,
16549,34.0,,,,,,,1.5661157369613647,,,,,,
16599,34.0,,,,,,,1.3952555656433105,,,,,,
16649,34.0,,,,,,,1.2126691341400146,,,,,,
16699,34.0,,,,,,,1.61590576171875,,,,,,
16749,34.0,,,,,,,1.605413794517517,,,,,,
16799,34.0,,,0.0,0.0,0.0,0.0,1.630571722984314,4.999999873689376e-05,40.40761947631836,0.8418254256248474,27.71377944946289,11.852015495300293,1.1072486639022827
16800,,,4.638968312065117e-05,,,,,,,,,,,
16849,35.0,,,,,,,1.2078567743301392,,,,,,
16899,35.0,,,,,,,1.2847046852111816,,,,,,
16949,35.0,,,,,,,1.4820858240127563,,,,,,
16999,35.0,,,,,,,1.2622814178466797,,,,,,
17049,35.0,,,,,,,1.25722336769104,,,,,,
17099,35.0,,,,,,,1.4485722780227661,,,,,,
17149,35.0,,,,,,,1.3097724914550781,,,,,,
17199,35.0,,,,,,,1.4213789701461792,,,,,,
17249,35.0,,,,,,,1.4842432737350464,,,,,,
17279,35.0,,,0.0,0.0,0.0,0.0,,4.999999873689376e-05,39.233497619628906,0.9304386377334595,26.163047790527344,12.140008926391602,1.07229483127594
17280,,,4.6186032705008984e-05,,,,,,,,,,,
17299,36.0,,,,,,,1.3179469108581543,,,,,,
17349,36.0,,,,,,,1.4753260612487793,,,,,,
17399,36.0,,,,,,,1.3726420402526855,,,,,,
17449,36.0,,,,,,,1.6492738723754883,,,,,,
17499,36.0,,,,,,,1.2932318449020386,,,,,,
17549,36.0,,,,,,,1.3276724815368652,,,,,,
17599,36.0,,,,,,,1.32976496219635,,,,,,
17649,36.0,,,,,,,1.3903493881225586,,,,,,
17699,36.0,,,,,,,1.296750545501709,,,,,,
17749,36.0,,,,,,,1.5586462020874023,,,,,,
17759,36.0,,,0.0,0.0,0.0,0.0,,4.999999873689376e-05,38.63535690307617,0.9525919556617737,25.188302993774414,12.494462013244629,1.1103891134262085
17760,,,4.5977281843079254e-05,,,,,,,,,,,
17799,37.0,,,,,,,1.3326882123947144,,,,,,
17849,37.0,,,,,,,1.1710093021392822,,,,,,
17899,37.0,,,,,,,1.4341212511062622,,,,,,
17949,37.0,,,,,,,1.7946445941925049,,,,,,
17999,37.0,,,,,,,1.5698904991149902,,,,,,
18049,37.0,,,,,,,1.2740392684936523,,,,,,
18099,37.0,,,,,,,1.3507975339889526,,,,,,
18149,37.0,,,,,,,1.3475608825683594,,,,,,
18199,37.0,,,,,,,1.4469629526138306,,,,,,
18239,37.0,,,0.0,0.0,0.0,0.0,,4.999999873689376e-05,37.882144927978516,0.9082853198051453,24.346477508544922,12.627381324768066,1.0540739297866821
18240,,,4.576347419060767e-05,,,,,,,,,,,
18249,38.0,,,,,,,1.3482427597045898,,,,,,
18299,38.0,,,,,,,1.644150733947754,,,,,,
18349,38.0,,,,,,,1.8365223407745361,,,,,,
18399,38.0,,,,,,,1.357037901878357,,,,,,
18449,38.0,,,,,,,1.3858369588851929,,,,,,
18499,38.0,,,,,,,1.2934997081756592,,,,,,
18549,38.0,,,,,,,1.4502062797546387,,,,,,
18599,38.0,,,,,,,1.1796033382415771,,,,,,
18649,38.0,,,,,,,1.2961164712905884,,,,,,
18699,38.0,,,,,,,1.041453242301941,,,,,,
18719,38.0,,,0.0,0.0,0.0,0.0,,4.999999873689376e-05,38.76827621459961,0.8196721076965332,26.14089584350586,11.807709693908691,1.0450297594070435
18720,,,4.5544667955255136e-05,,,,,,,,,,,
18749,39.0,,,,,,,1.213005542755127,,,,,,
18799,39.0,,,,,,,1.2995115518569946,,,,,,
18849,39.0,,,,,,,1.3313254117965698,,,,,,
18899,39.0,,,,,,,1.3275859355926514,,,,,,
18949,39.0,,,,,,,1.41825532913208,,,,,,
18999,39.0,,,,,,,1.15928053855896,,,,,,
19049,39.0,,,,,,,1.4023534059524536,,,,,,
19099,39.0,,,,,,,1.2454262971878052,,,,,,
19149,39.0,,,,,,,1.535593867301941,,,,,,
19199,39.0,,,0.0,0.0,0.0,0.0,1.305478811264038,4.999999873689376e-05,39.831634521484375,0.5538325309753418,27.935312271118164,11.342490196228027,1.0727076530456543
19200,,,4.532091770670377e-05,,,,,,,,,,,
19249,40.0,,,,,,,1.1991596221923828,,,,,,
19299,40.0,,,,,,,1.3577821254730225,,,,,,
19349,40.0,,,,,,,1.3487930297851562,,,,,,
19399,40.0,,,,,,,1.3988277912139893,,,,,,
19449,40.0,,,,,,,1.313310146331787,,,,,,
19499,40.0,,,,,,,1.1301319599151611,,,,,,
19549,40.0,,,,,,,1.5697094202041626,,,,,,
19599,40.0,,,,,,,1.5229312181472778,,,,,,
19649,40.0,,,,,,,1.2696659564971924,,,,,,
19679,40.0,,,0.0,0.0,0.0,0.0,,4.999999873689376e-05,36.97385787963867,0.8196721076965332,23.704030990600586,12.450155258178711,1.0216882228851318
19680,,,4.509227437665686e-05,,,,,,,,,,,
19699,41.0,,,,,,,1.4720580577850342,,,,,,
19749,41.0,,,,,,,1.3164681196212769,,,,,,
19799,41.0,,,,,,,1.2733275890350342,,,,,,
19849,41.0,,,,,,,1.3702064752578735,,,,,,
19899,41.0,,,,,,,1.5932313203811646,,,,,,
19949,41.0,,,,,,,1.294023036956787,,,,,,
19999,41.0,,,,,,,1.0722904205322266,,,,,,
20049,41.0,,,,,,,1.2132759094238281,,,,,,
20099,41.0,,,,,,,1.1958203315734863,,,,,,
20149,41.0,,,,,,,1.346118688583374,,,,,,
20159,41.0,,,0.0,0.0,0.0,0.0,,4.999999873689376e-05,37.018165588378906,0.6867523193359375,23.969871520996094,12.361541748046875,1.0191776752471924
20160,,,4.485879617277533e-05,,,,,,,,,,,
20199,42.0,,,,,,,1.4509093761444092,,,,,,
20249,42.0,,,,,,,1.5046513080596924,,,,,,
20299,42.0,,,,,,,1.4837878942489624,,,,,,
20349,42.0,,,,,,,1.0339525938034058,,,,,,
20399,42.0,,,,,,,1.0150326490402222,,,,,,
20449,42.0,,,,,,,1.1595032215118408,,,,,,
20499,42.0,,,,,,,1.5132054090499878,,,,,,
20549,42.0,,,,,,,1.3901307582855225,,,,,,
20599,42.0,,,,,,,1.2860355377197266,,,,,,
20639,42.0,,,0.0,0.0,0.0,0.0,,4.999999873689376e-05,35.8218879699707,0.9968985319137573,22.308374404907227,12.51661491394043,1.0183281898498535
20640,,,4.462054494069889e-05,,,,,,,,,,,
20649,43.0,,,,,,,1.2944269180297852,,,,,,
20699,43.0,,,,,,,1.7289395332336426,,,,,,
20749,43.0,,,,,,,1.0271950960159302,,,,,,
20799,43.0,,,,,,,1.3896353244781494,,,,,,
20849,43.0,,,,,,,1.4193897247314453,,,,,,
20899,43.0,,,,,,,1.5344170331954956,,,,,,
20949,43.0,,,,,,,1.1762731075286865,,,,,,
20999,43.0,,,,,,,0.8675548434257507,,,,,,
21049,43.0,,,,,,,1.2535176277160645,,,,,,
21099,43.0,,,,,,,1.1902275085449219,,,,,,
21119,43.0,,,0.0,0.0,0.0,0.0,,4.999999873689376e-05,34.957908630371094,1.1076650619506836,21.289321899414062,12.560921669006348,0.9954636096954346
21120,,,4.437757525010966e-05,,,,,,,,,,,
21149,44.0,,,,,,,0.9833674430847168,,,,,,
21199,44.0,,,,,,,1.1828008890151978,,,,,,
21249,44.0,,,,,,,1.4018841981887817,,,,,,
21299,44.0,,,,,,,0.9640371203422546,,,,,,
21349,44.0,,,,,,,1.3176920413970947,,,,,,
21399,44.0,,,,,,,1.3372986316680908,,,,,,
21449,44.0,,,,,,,1.4565919637680054,,,,,,
21499,44.0,,,,,,,1.1586928367614746,,,,,,
21549,44.0,,,,,,,1.2406359910964966,,,,,,
21599,44.0,,,0.0,0.0,0.0,0.0,1.2371432781219482,4.999999873689376e-05,35.64466094970703,0.7310589551925659,22.264066696166992,12.649535179138184,1.0298572778701782
21600,,,4.412994530866854e-05,,,,,,,,,,,
21649,45.0,,,,,,,1.3354334831237793,,,,,,
21699,45.0,,,,,,,1.1472735404968262,,,,,,
21749,45.0,,,,,,,1.2070484161376953,,,,,,
21799,45.0,,,,,,,1.5870206356048584,,,,,,
21849,45.0,,,,,,,1.2757173776626587,,,,,,
21899,45.0,,,,,,,1.2456613779067993,,,,,,
21949,45.0,,,,,,,1.212972640991211,,,,,,
21999,45.0,,,,,,,1.0452723503112793,,,,,,
22049,45.0,,,,,,,1.3720393180847168,,,,,,
22079,45.0,,,0.0,0.0,0.0,0.0,,4.999999873689376e-05,35.57820129394531,0.7532122135162354,22.729286193847656,12.095702171325684,1.0324467420578003
22080,,,4.387772059999406e-05,,,,,,,,,,,
22099,46.0,,,,,,,1.1332969665527344,,,,,,
22149,46.0,,,,,,,1.4602338075637817,,,,,,
22199,46.0,,,,,,,1.3022899627685547,,,,,,
22249,46.0,,,,,,,1.7754929065704346,,,,,,
22299,46.0,,,,,,,1.384430170059204,,,,,,
22349,46.0,,,,,,,1.0194324254989624,,,,,,
22399,46.0,,,,,,,1.1791236400604248,,,,,,
22449,46.0,,,,,,,1.297644853591919,,,,,,
22499,46.0,,,,,,,1.203772783279419,,,,,,
22549,46.0,,,,,,,1.2696185111999512,,,,,,
22559,46.0,,,0.0,0.0,0.0,0.0,,4.999999873689376e-05,32.29951095581055,1.373504638671875,17.855560302734375,13.07044792175293,0.9573461413383484
22560,,,4.362096296972595e-05,,,,,,,,,,,
22599,47.0,,,,,,,1.1166433095932007,,,,,,
22649,47.0,,,,,,,1.3398003578186035,,,,,,
22699,47.0,,,,,,,0.9902926683425903,,,,,,
22749,47.0,,,,,,,1.2736096382141113,,,,,,
22799,47.0,,,,,,,1.2017030715942383,,,,,,
22849,47.0,,,,,,,1.1563358306884766,,,,,,
22899,47.0,,,,,,,1.25105881690979,,,,,,
22949,47.0,,,,,,,1.075852632522583,,,,,,
22999,47.0,,,,,,,1.3418916463851929,,,,,,
23039,47.0,,,0.0,0.0,0.0,0.0,,4.999999873689376e-05,32.764732360839844,1.0855116844177246,18.586620330810547,13.09260082244873,0.9519637227058411
23040,,,4.335973062552512e-05,,,,,,,,,,,
23049,48.0,,,,,,,0.9571924209594727,,,,,,
23099,48.0,,,,,,,1.3693625926971436,,,,,,
23149,48.0,,,,,,,1.215285062789917,,,,,,
23199,48.0,,,,,,,1.0472602844238281,,,,,,
23249,48.0,,,,,,,1.2129615545272827,,,,,,
23299,48.0,,,,,,,1.279217004776001,,,,,,
23349,48.0,,,,,,,1.124725580215454,,,,,,
23399,48.0,,,,,,,1.3257540464401245,,,,,,
23449,48.0,,,,,,,1.0704400539398193,,,,,,
23499,48.0,,,,,,,1.1080549955368042,,,,,,
23519,48.0,,,0.0,0.0,0.0,0.0,,4.999999873689376e-05,33.62871170043945,0.7975188493728638,20.469650268554688,12.361541748046875,0.9836792349815369
23520,,,4.3094092688988894e-05,,,,,,,,,,,
23549,49.0,,,,,,,1.3914738893508911,,,,,,
23599,49.0,,,,,,,1.0805795192718506,,,,,,
23649,49.0,,,,,,,1.2061421871185303,,,,,,
23699,49.0,,,,,,,1.1663926839828491,,,,,,
23749,49.0,,,,,,,1.0803121328353882,,,,,,
23799,49.0,,,,,,,1.0775829553604126,,,,,,
23849,49.0,,,,,,,1.1838855743408203,,,,,,
23899,49.0,,,,,,,0.9575506448745728,,,,,,
23949,49.0,,,,,,,1.1104497909545898,,,,,,
23999,49.0,,,0.0,0.0,0.0,0.0,1.360310435295105,4.999999873689376e-05,31.524147033691406,0.9525919556617737,16.83650779724121,13.73504638671875,0.913242518901825
24000,,,4.282411464373581e-05,,,,,,,,,,,
24049,50.0,,,,,,,1.2497267723083496,,,,,,
24099,50.0,,,,,,,1.280956506729126,,,,,,
24149,50.0,,,,,,,1.0941153764724731,,,,,,
24199,50.0,,,,,,,0.9925764203071594,,,,,,
24249,50.0,,,,,,,1.3547561168670654,,,,,,
24299,50.0,,,,,,,1.1951777935028076,,,,,,
24349,50.0,,,,,,,1.3509831428527832,,,,,,
24399,50.0,,,,,,,1.2569671869277954,,,,,,
24449,50.0,,,,,,,0.9170316457748413,,,,,,
24479,50.0,,,0.0,0.0,0.0,0.0,,4.999999873689376e-05,30.903854370117188,1.6614975929260254,16.038990020751953,13.203367233276367,0.8960140347480774
24480,,,4.2549861973384395e-05,,,,,,,,,,,
24499,51.0,,,,,,,1.0829277038574219,,,,,,
24549,51.0,,,,,,,1.4244829416275024,,,,,,
24599,51.0,,,,,,,1.5038769245147705,,,,,,
24649,51.0,,,,,,,1.1651585102081299,,,,,,
24699,51.0,,,,,,,1.1065337657928467,,,,,,
24749,51.0,,,,,,,1.020857334136963,,,,,,
24799,51.0,,,,,,,1.2397817373275757,,,,,,
24849,51.0,,,,,,,1.4685935974121094,,,,,,
24899,51.0,,,,,,,1.1402653455734253,,,,,,
24949,51.0,,,,,,,1.0926274061203003,,,,,,
24959,51.0,,,0.0,0.0,0.0,0.0,,4.999999873689376e-05,32.89765167236328,1.129818320274353,18.276473999023438,13.491360664367676,0.9726770520210266
24960,,,4.227140379953198e-05,,,,,,,,,,,
24999,52.0,,,,,,,1.102257251739502,,,,,,
25049,52.0,,,,,,,1.1540334224700928,,,,,,
25099,52.0,,,,,,,1.4053516387939453,,,,,,
25149,52.0,,,,,,,1.3025298118591309,,,,,,
25199,52.0,,,,,,,1.5280340909957886,,,,,,
25249,52.0,,,,,,,0.9119852781295776,,,,,,
25299,52.0,,,,,,,1.0003163814544678,,,,,,
25349,52.0,,,,,,,0.9064118266105652,,,,,,
25399,52.0,,,,,,,1.1002706289291382,,,,,,
25439,52.0,,,0.0,0.0,0.0,0.0,,4.999999873689376e-05,30.926008224487305,0.8861320614814758,17.545413970947266,12.494462013244629,0.9168561697006226
25440,,,4.19888056057971e-05,,,,,,,,,,,
25449,53.0,,,,,,,1.2837464809417725,,,,,,
25499,53.0,,,,,,,1.2241790294647217,,,,,,
25549,53.0,,,,,,,1.349141240119934,,,,,,
25599,53.0,,,,,,,1.0813612937927246,,,,,,
25649,53.0,,,,,,,1.1576952934265137,,,,,,
25699,53.0,,,,,,,0.9943901896476746,,,,,,
25749,53.0,,,,,,,1.151584506034851,,,,,,
25799,53.0,,,,,,,1.0037976503372192,,,,,,
25849,53.0,,,,,,,0.9821857810020447,,,,,,
25899,53.0,,,,,,,1.168130874633789,,,,,,
25919,53.0,,,0.0,0.0,0.0,0.0,,4.999999873689376e-05,31.590606689453125,1.4399645328521729,17.27957534790039,12.871068000793457,0.907002866268158
25920,,,4.1702140151755884e-05,,,,,,,,,,,
25949,54.0,,,,,,,1.261261224746704,,,,,,
25999,54.0,,,,,,,1.0349359512329102,,,,,,
26049,54.0,,,,,,,0.8700039386749268,,,,,,
26099,54.0,,,,,,,1.0134786367416382,,,,,,
26149,54.0,,,,,,,1.1811100244522095,,,,,,
26199,54.0,,,,,,,1.1209913492202759,,,,,,
26249,54.0,,,,,,,1.0387685298919678,,,,,,
26299,54.0,,,,,,,1.0672557353973389,,,,,,
26349,54.0,,,,,,,1.2095993757247925,,,,,,
26399,54.0,,,0.0,0.0,0.0,0.0,0.7351582050323486,4.999999873689376e-05,32.210899353027344,1.0855116844177246,19.140451431274414,11.984935760498047,0.9193527698516846
26400,,,4.141147655900568e-05,,,,,,,,,,,
26449,55.0,,,,,,,1.2033121585845947,,,,,,
26499,55.0,,,,,,,1.2463282346725464,,,,,,
26549,55.0,,,,,,,1.1906603574752808,,,,,,
26599,55.0,,,,,,,1.0544134378433228,,,,,,
26649,55.0,,,,,,,1.4364299774169922,,,,,,
26699,55.0,,,,,,,1.120574712753296,,,,,,
26749,55.0,,,,,,,0.9783480167388916,,,,,,
26799,55.0,,,,,,,1.281212568283081,,,,,,
26849,55.0,,,,,,,1.1726573705673218,,,,,,
26879,55.0,,,0.0,0.0,0.0,0.0,,4.999999873689376e-05,31.25830841064453,1.4399645328521729,17.412494659423828,12.405848503112793,0.9338199496269226
26880,,,4.111688758712262e-05,,,,,,,,,,,
26899,56.0,,,,,,,1.2288415431976318,,,,,,
26949,56.0,,,,,,,1.2289518117904663,,,,,,
26999,56.0,,,,,,,1.1050511598587036,,,,,,
27049,56.0,,,,,,,1.0431040525436401,,,,,,
27099,56.0,,,,,,,1.1844408512115479,,,,,,
27149,56.0,,,,,,,1.0185496807098389,,,,,,
27199,56.0,,,,,,,1.06125009059906,,,,,,
27249,56.0,,,,,,,1.2047369480133057,,,,,,
27299,56.0,,,,,,,1.0239266157150269,,,,,,
27349,56.0,,,,,,,1.4014003276824951,,,,,,
27359,56.0,,,0.0,0.0,0.0,0.0,,4.999999873689376e-05,34.31546401977539,1.0633584260940552,20.469650268554688,12.782454490661621,0.9783448576927185
27360,,,4.081844599568285e-05,,,,,,,,,,,
27399,57.0,,,,,,,1.0683629512786865,,,,,,
27449,57.0,,,,,,,1.2369023561477661,,,,,,
27499,57.0,,,,,,,0.8508537411689758,,,,,,
27549,57.0,,,,,,,1.259606122970581,,,,,,
27599,57.0,,,,,,,1.1986470222473145,,,,,,
27649,57.0,,,,,,,1.0386557579040527,,,,,,
27699,57.0,,,,,,,1.0961192846298218,,,,,,
27749,57.0,,,,,,,1.1247080564498901,,,,,,
27799,57.0,,,,,,,0.8700523376464844,,,,,,
27839,57.0,,,0.0,0.0,0.0,0.0,,4.999999873689376e-05,30.726627349853516,1.3956578969955444,16.637128829956055,12.693840980529785,0.907081663608551
27840,,,4.0516224544262514e-05,,,,,,,,,,,
27849,58.0,,,,,,,1.1197874546051025,,,,,,
27899,58.0,,,,,,,1.4094433784484863,,,,,,
27949,58.0,,,,,,,1.0227482318878174,,,,,,
27999,58.0,,,,,,,1.1693381071090698,,,,,,
28049,58.0,,,,,,,0.824633002281189,,,,,,
28099,58.0,,,,,,,1.1225371360778809,,,,,,
28149,58.0,,,,,,,1.2417168617248535,,,,,,
28199,58.0,,,,,,,1.2767302989959717,,,,,,
28249,58.0,,,,,,,1.1589157581329346,,,,,,
28299,58.0,,,,,,,0.9676803350448608,,,,,,
28319,58.0,,,0.0,0.0,0.0,0.0,,4.999999873689376e-05,28.5777587890625,1.7058041095733643,13.557820320129395,13.314133644104004,0.8618412017822266
28320,,,4.021029599243775e-05,,,,,,,,,,,
28349,59.0,,,,,,,1.1415700912475586,,,,,,
28399,59.0,,,,,,,1.123277187347412,,,,,,
28449,59.0,,,,,,,1.0724588632583618,,,,,,
28499,59.0,,,,,,,1.1852318048477173,,,,,,
28549,59.0,,,,,,,0.9710843563079834,,,,,,
28599,59.0,,,,,,,1.116034746170044,,,,,,
28649,59.0,,,,,,,1.0340522527694702,,,,,,
28699,59.0,,,,,,,1.0753989219665527,,,,,,
28749,59.0,,,,,,,1.0379245281219482,,,,,,
28799,59.0,,,0.0,0.0,0.0,0.0,0.8511683940887451,4.999999873689376e-05,29.24235725402832,1.3513513803482056,14.798404693603516,13.09260082244873,0.85895836353302
28800,,,3.9900740375742316e-05,,,,,,,,,,,
28849,60.0,,,,,,,1.2358160018920898,,,,,,
28899,60.0,,,,,,,1.061746597290039,,,,,,
28949,60.0,,,,,,,1.0465807914733887,,,,,,
28999,60.0,,,,,,,0.9500696063041687,,,,,,
29049,60.0,,,,,,,0.8364685773849487,,,,,,
29099,60.0,,,,,,,0.6595903635025024,,,,,,
29149,60.0,,,,,,,1.2167243957519531,,,,,,
29199,60.0,,,,,,,1.1682231426239014,,,,,,
29249,60.0,,,,,,,0.9270927906036377,,,,,,
29279,60.0,,,0.0,0.0,0.0,0.0,,4.999999873689376e-05,29.707576751708984,1.1076650619506836,15.83961009979248,12.76030158996582,0.8746691346168518
29280,,,3.9587630453752354e-05,,,,,,,,,,,
29299,61.0,,,,,,,1.126834750175476,,,,,,
29349,61.0,,,,,,,1.2555794715881348,,,,,,
29399,61.0,,,,,,,1.0249472856521606,,,,,,
29449,61.0,,,,,,,1.5610487461090088,,,,,,
29499,61.0,,,,,,,0.9735783934593201,,,,,,
29549,61.0,,,,,,,0.9921814203262329,,,,,,
29599,61.0,,,,,,,1.1799638271331787,,,,,,
29649,61.0,,,,,,,0.998478889465332,,,,,,
29699,61.0,,,,,,,0.9045279026031494,,,,,,
29749,61.0,,,,,,,0.8852073550224304,,,,,,
29759,61.0,,,0.0,0.0,0.0,0.0,,4.999999873689376e-05,28.99867057800293,1.2405848503112793,14.93132495880127,12.826761245727539,0.8521786332130432
29760,,,3.927104262402281e-05,,,,,,,,,,,
29799,62.0,,,,,,,1.0073785781860352,,,,,,
29849,62.0,,,,,,,0.9723787307739258,,,,,,
29899,62.0,,,,,,,0.9812235236167908,,,,,,
29949,62.0,,,,,,,0.979272723197937,,,,,,
29999,62.0,,,,,,,1.1347135305404663,,,,,,
30049,62.0,,,,,,,0.9432269334793091,,,,,,
30099,62.0,,,,,,,0.8928799033164978,,,,,,
30149,62.0,,,,,,,1.0927937030792236,,,,,,
30199,62.0,,,,,,,1.0125585794448853,,,,,,
30239,62.0,,,0.0,0.0,0.0,0.0,,4.999999873689376e-05,27.78023910522461,1.9273371696472168,13.048294067382812,12.804608345031738,0.8468501567840576
30240,,,3.895106056006625e-05,,,,,,,,,,,
30249,63.0,,,,,,,0.9361937642097473,,,,,,
30299,63.0,,,,,,,1.13478684425354,,,,,,
30349,63.0,,,,,,,1.0268380641937256,,,,,,
30399,63.0,,,,,,,1.1030579805374146,,,,,,
30449,63.0,,,,,,,1.294751763343811,,,,,,
30499,63.0,,,,,,,1.1789090633392334,,,,,,
30549,63.0,,,,,,,0.9037555456161499,,,,,,
30599,63.0,,,,,,,0.9884765148162842,,,,,,
30649,63.0,,,,,,,1.1176997423171997,,,,,,
30699,63.0,,,,,,,1.0032484531402588,,,,,,
30719,63.0,,,0.0,0.0,0.0,0.0,,4.999999873689376e-05,27.093486785888672,1.4621179103851318,12.162161827087402,13.469206809997559,0.8333407640457153
30720,,,3.862775702145882e-05,,,,,,,,,,,
30749,64.0,,,,,,,1.238067388534546,,,,,,
30799,64.0,,,,,,,1.173654317855835,,,,,,
30849,64.0,,,,,,,1.1157599687576294,,,,,,
30899,64.0,,,,,,,1.110428810119629,,,,,,
30949,64.0,,,,,,,1.1470838785171509,,,,,,
30999,64.0,,,,,,,1.0647474527359009,,,,,,
31049,64.0,,,,,,,1.030707597732544,,,,,,
31099,64.0,,,,,,,0.9864499568939209,,,,,,
31149,64.0,,,,,,,0.9989692568778992,,,,,,
31199,64.0,,,0.0,0.0,0.0,0.0,1.1226871013641357,4.999999873689376e-05,30.261409759521484,1.0633584260940552,16.41559600830078,12.782454490661621,0.898644745349884
31200,,,3.8301215681713074e-05,,,,,,,,,,,
31249,65.0,,,,,,,1.2239549160003662,,,,,,
31299,65.0,,,,,,,0.9051265716552734,,,,,,
31349,65.0,,,,,,,1.3280634880065918,,,,,,
31399,65.0,,,,,,,1.0412447452545166,,,,,,
31449,65.0,,,,,,,0.8785346746444702,,,,,,
31499,65.0,,,,,,,1.2931935787200928,,,,,,
31549,65.0,,,,,,,1.086942434310913,,,,,,
31599,65.0,,,,,,,1.0103920698165894,,,,,,
31649,65.0,,,,,,,1.1204197406768799,,,,,,
31679,65.0,,,0.0,0.0,0.0,0.0,,4.999999873689376e-05,26.98272132873535,1.5728843212127686,13.07044792175293,12.339388847351074,0.8248512148857117
31680,,,3.797151293838397e-05,,,,,,,,,,,
31699,66.0,,,,,,,0.9015553593635559,,,,,,
31749,66.0,,,,,,,0.9183378219604492,,,,,,
31799,66.0,,,,,,,0.6749925017356873,,,,,,
31849,66.0,,,,,,,0.8686208128929138,,,,,,
31899,66.0,,,,,,,0.974600613117218,,,,,,
31949,66.0,,,,,,,0.9888358116149902,,,,,,
31999,66.0,,,,,,,1.1018297672271729,,,,,,
32049,66.0,,,,,,,1.40822172164917,,,,,,
32099,66.0,,,,,,,1.1396477222442627,,,,,,
32149,66.0,,,,,,,1.041602373123169,,,,,,
32159,66.0,,,0.0,0.0,0.0,0.0,,4.999999873689376e-05,28.422685623168945,1.1741249561309814,14.466105461120605,12.782454490661621,0.8615261316299438
32160,,,3.7638736102962866e-05,,,,,,,,,,,
32199,67.0,,,,,,,1.0611494779586792,,,,,,
32249,67.0,,,,,,,1.0697576999664307,,,,,,
32299,67.0,,,,,,,1.0753254890441895,,,,,,
32349,67.0,,,,,,,1.1209611892700195,,,,,,
32399,67.0,,,,,,,0.8655058145523071,,,,,,
32449,67.0,,,,,,,1.042872428894043,,,,,,
32499,67.0,,,,,,,0.8798500299453735,,,,,,
32549,67.0,,,,,,,0.9404425621032715,,,,,,
32599,67.0,,,,,,,0.9830989837646484,,,,,,
32639,67.0,,,0.0,0.0,0.0,0.0,,4.999999873689376e-05,26.80549430847168,1.5064244270324707,13.291980743408203,12.007088661193848,0.8311560750007629
32640,,,3.730296521098353e-05,,,,,,,,,,,
32649,68.0,,,,,,,1.0006905794143677,,,,,,
32699,68.0,,,,,,,0.7702081203460693,,,,,,
32749,68.0,,,,,,,1.0672459602355957,,,,,,
32799,68.0,,,,,,,1.070390224456787,,,,,,
32849,68.0,,,,,,,0.7489193081855774,,,,,,
32899,68.0,,,,,,,1.122029185295105,,,,,,
32949,68.0,,,,,,,0.8824117183685303,,,,,,
32999,68.0,,,,,,,0.9976897835731506,,,,,,
33049,68.0,,,,,,,0.7561311721801758,,,,,,
33099,68.0,,,,,,,0.9985682964324951,,,,,,
33119,68.0,,,0.0,0.0,0.0,0.0,,4.999999873689376e-05,29.397430419921875,1.0190517902374268,15.773150444030762,12.605228424072266,0.884256899356842
33120,,,3.696428029797971e-05,,,,,,,,,,,
33149,69.0,,,,,,,1.104002833366394,,,,,,
33199,69.0,,,,,,,0.8144980072975159,,,,,,
33249,69.0,,,,,,,1.132354974746704,,,,,,
33299,69.0,,,,,,,0.8738735914230347,,,,,,
33349,69.0,,,,,,,0.919602632522583,,,,,,
33399,69.0,,,,,,,0.9370226263999939,,,,,,
33449,69.0,,,,,,,1.1269539594650269,,,,,,
33499,69.0,,,,,,,0.9277406334877014,,,,,,
33549,69.0,,,,,,,0.9115849137306213,,,,,,
33599,69.0,,,0.0,0.0,0.0,0.0,1.252091407775879,4.999999873689376e-05,27.292865753173828,1.3513513803482056,13.97873306274414,11.962782859802246,0.8212420344352722
33600,,,3.6622768675442785e-05,,,,,,,,,,,
33649,70.0,,,,,,,1.246406078338623,,,,,,
33699,70.0,,,,,,,1.2598412036895752,,,,,,
33749,70.0,,,,,,,0.9628382921218872,,,,,,
33799,70.0,,,,,,,1.2233580350875854,,,,,,
33849,70.0,,,,,,,0.9271936416625977,,,,,,
33899,70.0,,,,,,,1.052093505859375,,,,,,
33949,70.0,,,,,,,1.0038323402404785,,,,,,
33999,70.0,,,,,,,0.8422788381576538,,,,,,
34049,70.0,,,,,,,0.8505051136016846,,,,,,
34079,70.0,,,0.0,0.0,0.0,0.0,,4.999999873689376e-05,26.84980010986328,1.2405848503112793,13.15906047821045,12.450155258178711,0.8353613615036011
34080,,,3.62785103789065e-05,,,,,,,,,,,
34099,71.0,,,,,,,1.2947498559951782,,,,,,
34149,71.0,,,,,,,1.0343209505081177,,,,,,
34199,71.0,,,,,,,1.1112419366836548,,,,,,
34249,71.0,,,,,,,0.8835384249687195,,,,,,
34299,71.0,,,,,,,0.8086287379264832,,,,,,
34349,71.0,,,,,,,0.9086365699768066,,,,,,
34399,71.0,,,,,,,1.0957283973693848,,,,,,
34449,71.0,,,,,,,0.954833984375,,,,,,
34499,71.0,,,,,,,0.7964361310005188,,,,,,
34549,71.0,,,,,,,0.9375768899917603,,,,,,
34559,71.0,,,0.0,0.0,0.0,0.0,,4.999999873689376e-05,27.603012084960938,1.151971697807312,14.731945037841797,11.719096183776855,0.8095510005950928
34560,,,3.593159271986224e-05,,,,,,,,,,,
34599,72.0,,,,,,,0.8474662899971008,,,,,,
34649,72.0,,,,,,,1.1238913536071777,,,,,,
34699,72.0,,,,,,,0.9107626676559448,,,,,,
34749,72.0,,,,,,,1.0190792083740234,,,,,,
34799,72.0,,,,,,,0.9411444067955017,,,,,,
34849,72.0,,,,,,,1.2580509185791016,,,,,,
34899,72.0,,,,,,,0.7947624921798706,,,,,,
34949,72.0,,,,,,,0.822501540184021,,,,,,
34999,72.0,,,,,,,1.1135971546173096,,,,,,
35039,72.0,,,0.0,0.0,0.0,0.0,,4.999999873689376e-05,27.558706283569336,0.9525919556617737,14.466105461120605,12.140008926391602,0.8183821439743042
35040,,,3.558210300980136e-05,,,,,,,,,,,
35049,73.0,,,,,,,0.6584707498550415,,,,,,
35099,73.0,,,,,,,0.9432017803192139,,,,,,
35149,73.0,,,,,,,0.9155105352401733,,,,,,
35199,73.0,,,,,,,1.1151764392852783,,,,,,
35249,73.0,,,,,,,1.2979553937911987,,,,,,
35299,73.0,,,,,,,1.2246720790863037,,,,,,
35349,73.0,,,,,,,0.8633127808570862,,,,,,
35399,73.0,,,,,,,1.1577081680297852,,,,,,
35449,73.0,,,,,,,1.112176537513733,,,,,,
35499,73.0,,,,,,,1.3079140186309814,,,,,,
35519,73.0,,,0.0,0.0,0.0,0.0,,4.999999873689376e-05,24.568010330200195,1.6836508512496948,10.722197532653809,12.162161827087402,0.7917678356170654
35520,,,3.523012492223643e-05,,,,,,,,,,,
35549,74.0,,,,,,,1.0711071491241455,,,,,,
35599,74.0,,,,,,,0.9953869581222534,,,,,,
35649,74.0,,,,,,,0.7934892177581787,,,,,,
35699,74.0,,,,,,,0.9258774518966675,,,,,,
35749,74.0,,,,,,,0.9524869322776794,,,,,,
35799,74.0,,,,,,,0.8906113505363464,,,,,,
35849,74.0,,,,,,,1.219388723373413,,,,,,
35899,74.0,,,,,,,1.1109342575073242,,,,,,
35949,74.0,,,,,,,0.9382133483886719,,,,,,
35999,74.0,,,0.0,0.0,0.0,0.0,0.7086399793624878,4.999999873689376e-05,27.004873275756836,1.3070447444915771,13.07044792175293,12.627381324768066,0.8125383257865906
36000,,,3.487574576865882e-05,,,,,,,,,,,
36049,75.0,,,,,,,0.962173342704773,,,,,,
36099,75.0,,,,,,,0.9930951595306396,,,,,,
36149,75.0,,,,,,,0.9406235218048096,,,,,,
36199,75.0,,,,,,,0.6552979350090027,,,,,,
36249,75.0,,,,,,,1.1149182319641113,,,,,,
36299,75.0,,,,,,,1.0284624099731445,,,,,,
36349,75.0,,,,,,,0.8182657957077026,,,,,,
36399,75.0,,,,,,,0.8332267999649048,,,,,,
36449,75.0,,,,,,,1.0672693252563477,,,,,,
36479,75.0,,,0.0,0.0,0.0,0.0,,4.999999873689376e-05,25.675676345825195,1.3956578969955444,11.984935760498047,12.295082092285156,0.777728259563446
36480,,,3.4519052860559896e-05,,,,,,,,,,,
36499,76.0,,,,,,,0.8118425607681274,,,,,,
36549,76.0,,,,,,,1.279184103012085,,,,,,
36599,76.0,,,,,,,0.8648199439048767,,,,,,
36649,76.0,,,,,,,0.9262310862541199,,,,,,
36699,76.0,,,,,,,0.9902124404907227,,,,,,
36749,76.0,,,,,,,0.6422325372695923,,,,,,
36799,76.0,,,,,,,0.7062515020370483,,,,,,
36849,76.0,,,,,,,1.0979256629943848,,,,,,
36899,76.0,,,,,,,1.1819900274276733,,,,,,
36949,76.0,,,,,,,0.834220290184021,,,,,,
36959,76.0,,,0.0,0.0,0.0,0.0,,4.999999873689376e-05,26.716880798339844,1.3291980028152466,12.76030158996582,12.627381324768066,0.8009465932846069
36960,,,3.4160133509431034e-05,,,,,,,,,,,
36999,77.0,,,,,,,1.0265933275222778,,,,,,
37049,77.0,,,,,,,0.9627949595451355,,,,,,
37099,77.0,,,,,,,0.9445493221282959,,,,,,
37149,77.0,,,,,,,0.8953522443771362,,,,,,
37199,77.0,,,,,,,0.7761603593826294,,,,,,
37249,77.0,,,,,,,0.8529433012008667,,,,,,
37299,77.0,,,,,,,1.0606437921524048,,,,,,
37349,77.0,,,,,,,0.8876950740814209,,,,,,
37399,77.0,,,,,,,0.949452817440033,,,,,,
37439,77.0,,,0.0,0.0,0.0,0.0,,4.999999873689376e-05,25.675676345825195,1.5064244270324707,11.696943283081055,12.472308158874512,0.8094276189804077
37440,,,3.379907866474241e-05,,,,,,,,,,,
37449,78.0,,,,,,,1.1202772855758667,,,,,,
37499,78.0,,,,,,,0.6500968933105469,,,,,,
37549,78.0,,,,,,,0.828937292098999,,,,,,
37599,78.0,,,,,,,0.987904965877533,,,,,,
37649,78.0,,,,,,,0.920706033706665,,,,,,
37699,78.0,,,,,,,1.0466928482055664,,,,,,
37749,78.0,,,,,,,1.0563791990280151,,,,,,
37799,78.0,,,,,,,0.967673659324646,,,,,,
37849,78.0,,,,,,,1.0260999202728271,,,,,,
37899,78.0,,,,,,,0.8795610070228577,,,,,,
37919,78.0,,,0.0,0.0,0.0,0.0,,4.999999873689376e-05,26.8719539642334,1.2184315919876099,13.225520133972168,12.428001403808594,0.8327077031135559
37920,,,3.3435975637985393e-05,,,,,,,,,,,
37949,79.0,,,,,,,0.8761125802993774,,,,,,
37999,79.0,,,,,,,0.7158781290054321,,,,,,
38049,79.0,,,,,,,0.7829278111457825,,,,,,
38099,79.0,,,,,,,1.233640193939209,,,,,,
38149,79.0,,,,,,,0.8261839747428894,,,,,,
38199,79.0,,,,,,,0.8909342885017395,,,,,,
38249,79.0,,,,,,,0.7889868021011353,,,,,,
38299,79.0,,,,,,,1.0204229354858398,,,,,,
38349,79.0,,,,,,,0.9610480666160583,,,,,,
38399,79.0,,,0.0,0.0,0.0,0.0,0.9755241274833679,4.999999873689376e-05,26.340274810791016,1.4842711687088013,12.472308158874512,12.383695602416992,0.8070845007896423
38400,,,3.307091537863016e-05,,,,,,,,,,,
38449,80.0,,,,,,,0.8025131821632385,,,,,,
38499,80.0,,,,,,,0.8659920692443848,,,,,,
38549,80.0,,,,,,,0.8261055946350098,,,,,,
38599,80.0,,,,,,,1.136963963508606,,,,,,
38649,80.0,,,,,,,0.8960639834403992,,,,,,
38699,80.0,,,,,,,0.9896500110626221,,,,,,
38749,80.0,,,,,,,0.8765695691108704,,,,,,
38799,80.0,,,,,,,0.9492809176445007,,,,,,
38849,80.0,,,,,,,1.0728447437286377,,,,,,
38879,80.0,,,0.0,0.0,0.0,0.0,,4.999999873689376e-05,26.030128479003906,1.1741249561309814,12.051395416259766,12.804608345031738,0.8058810830116272
38880,,,3.270398883614689e-05,,,,,,,,,,,
38899,81.0,,,,,,,0.6781953573226929,,,,,,
38949,81.0,,,,,,,0.9429031610488892,,,,,,
38999,81.0,,,,,,,0.9472996592521667,,,,,,
39049,81.0,,,,,,,0.7914945483207703,,,,,,
39099,81.0,,,,,,,1.00259530544281,,,,,,
39149,81.0,,,,,,,1.1691930294036865,,,,,,
39199,81.0,,,,,,,0.8741058111190796,,,,,,
39249,81.0,,,,,,,0.8096109628677368,,,,,,
39299,81.0,,,,,,,0.7815120816230774,,,,,,
39349,81.0,,,,,,,0.7624384164810181,,,,,,
39359,81.0,,,0.0,0.0,0.0,0.0,,4.999999873689376e-05,25.542755126953125,1.3070447444915771,12.228622436523438,12.007088661193848,0.8092275857925415
39360,,,3.233528332202695e-05,,,,,,,,,,,
39399,82.0,,,,,,,1.198477029800415,,,,,,
39449,82.0,,,,,,,1.0541958808898926,,,,,,
39499,82.0,,,,,,,1.1942782402038574,,,,,,
39549,82.0,,,,,,,1.0857748985290527,,,,,,
39599,82.0,,,,,,,0.8854725360870361,,,,,,
39649,82.0,,,,,,,0.9829900860786438,,,,,,
39699,82.0,,,,,,,0.93501877784729,,,,,,
39749,82.0,,,,,,,0.9288803339004517,,,,,,
39799,82.0,,,,,,,1.0672211647033691,,,,,,
39839,82.0,,,0.0,0.0,0.0,0.0,,4.999999873689376e-05,25.011075973510742,1.151971697807312,11.918476104736328,11.940629005432129,0.7913146018981934
39840,,,3.1964889785740525e-05,,,,,,,,,,,
39849,83.0,,,,,,,1.0872666835784912,,,,,,
39899,83.0,,,,,,,1.0816197395324707,,,,,,
39949,83.0,,,,,,,0.8683058023452759,,,,,,
39999,83.0,,,,,,,0.8199560642242432,,,,,,
40049,83.0,,,,,,,1.010790467262268,,,,,,
40099,83.0,,,,,,,0.861434280872345,,,,,,
40149,83.0,,,,,,,0.9377650022506714,,,,,,
40199,83.0,,,,,,,0.7913825511932373,,,,,,
40249,83.0,,,,,,,0.8903967142105103,,,,,,
40299,83.0,,,,,,,0.9153781533241272,,,,,,
40319,83.0,,,0.0,0.0,0.0,0.0,,4.999999873689376e-05,25.099689483642578,1.4621179103851318,10.34559154510498,13.291980743408203,0.7932278513908386
40320,,,3.159290281473659e-05,,,,,,,,,,,
40349,84.0,,,,,,,0.7085602283477783,,,,,,
40399,84.0,,,,,,,0.7688724398612976,,,,,,
40449,84.0,,,,,,,1.1119167804718018,,,,,,
40499,84.0,,,,,,,1.0486451387405396,,,,,,
40549,84.0,,,,,,,0.732785701751709,,,,,,
40599,84.0,,,,,,,0.9084020256996155,,,,,,
40649,84.0,,,,,,,0.8804068565368652,,,,,,
40699,84.0,,,,,,,0.9091417789459229,,,,,,
40749,84.0,,,,,,,1.035064458847046,,,,,,
40799,84.0,,,0.0,0.0,0.0,0.0,0.6858505010604858,4.999999873689376e-05,25.63136863708496,1.0855116844177246,12.450155258178711,12.095702171325684,0.8052137494087219
40800,,,3.121940972050652e-05,,,,,,,,,,,
40849,85.0,,,,,,,0.8353177309036255,,,,,,
40899,85.0,,,,,,,0.5777373313903809,,,,,,
40949,85.0,,,,,,,0.8861387968063354,,,,,,
40999,85.0,,,,,,,0.6085880398750305,,,,,,
41049,85.0,,,,,,,0.8050329685211182,,,,,,
41099,85.0,,,,,,,0.8188750743865967,,,,,,
41149,85.0,,,,,,,0.7707964181900024,,,,,,
41199,85.0,,,,,,,0.9632047414779663,,,,,,
41249,85.0,,,,,,,1.0243457555770874,,,,,,
41279,85.0,,,0.0,0.0,0.0,0.0,,4.999999873689376e-05,25.409835815429688,1.1076650619506836,12.295082092285156,12.007088661193848,0.7990574836730957
41280,,,3.0844508728478104e-05,,,,,,,,,,,
41299,86.0,,,,,,,0.888776421546936,,,,,,
41349,86.0,,,,,,,0.966865062713623,,,,,,
41399,86.0,,,,,,,0.6874467730522156,,,,,,
41449,86.0,,,,,,,1.2810542583465576,,,,,,
41499,86.0,,,,,,,0.789734423160553,,,,,,
41549,86.0,,,,,,,0.8538488745689392,,,,,,
41599,86.0,,,,,,,0.873929500579834,,,,,,
41649,86.0,,,,,,,0.854520320892334,,,,,,
41699,86.0,,,,,,,0.8528926372528076,,,,,,
41749,86.0,,,,,,,1.1250616312026978,,,,,,
41759,86.0,,,0.0,0.0,0.0,0.0,,4.999999873689376e-05,23.482498168945312,1.7058041095733643,9.703145980834961,12.073549270629883,0.7718164324760437
41760,,,3.0468288969132118e-05,,,,,,,,,,,
41799,87.0,,,,,,,0.9717561602592468,,,,,,
41849,87.0,,,,,,,1.1063406467437744,,,,,,
41899,87.0,,,,,,,0.885028064250946,,,,,,
41949,87.0,,,,,,,0.9583133459091187,,,,,,
41999,87.0,,,,,,,0.9865800142288208,,,,,,
42049,87.0,,,,,,,0.7247527241706848,,,,,,
42099,87.0,,,,,,,0.6230810284614563,,,,,,
42149,87.0,,,,,,,0.8996454477310181,,,,,,
42199,87.0,,,,,,,1.3203495740890503,,,,,,
42239,87.0,,,0.0,0.0,0.0,0.0,,4.999999873689376e-05,23.85910415649414,1.7501107454299927,9.858219146728516,12.250775337219238,0.7586992979049683
42240,,,3.009084139193874e-05,,,,,,,,,,,
42249,88.0,,,,,,,0.7446104884147644,,,,,,
42299,88.0,,,,,,,0.9528886675834656,,,,,,
42349,88.0,,,,,,,0.7301746606826782,,,,,,
42399,88.0,,,,,,,0.7983695268630981,,,,,,
42449,88.0,,,,,,,1.168481707572937,,,,,,
42499,88.0,,,,,,,0.8033978939056396,,,,,,
42549,88.0,,,,,,,0.7054244875907898,,,,,,
42599,88.0,,,,,,,0.8400288820266724,,,,,,
42649,88.0,,,,,,,0.8321034908294678,,,,,,
42699,88.0,,,,,,,0.8974435329437256,,,,,,
42719,88.0,,,0.0,0.0,0.0,0.0,,4.999999873689376e-05,26.25166130065918,1.0633584260940552,12.76030158996582,12.428001403808594,0.8211175203323364
42720,,,2.9712262403336354e-05,,,,,,,,,,,
42749,89.0,,,,,,,0.871351957321167,,,,,,
42799,89.0,,,,,,,0.9656795263290405,,,,,,
42849,89.0,,,,,,,0.8489675521850586,,,,,,
42899,89.0,,,,,,,0.9121647477149963,,,,,,
42949,89.0,,,,,,,0.8785253167152405,,,,,,
42999,89.0,,,,,,,0.877344012260437,,,,,,
43049,89.0,,,,,,,0.7935981750488281,,,,,,
43099,89.0,,,,,,,0.8817639350891113,,,,,,
43149,89.0,,,,,,,0.6436669826507568,,,,,,
43199,89.0,,,0.0,0.0,0.0,0.0,0.7717575430870056,4.999999873689376e-05,25.34337615966797,1.151971697807312,12.826761245727539,11.364643096923828,0.7876922488212585
43200,,,2.9332644771784544e-05,,,,,,,,,,,
43249,90.0,,,,,,,1.0014011859893799,,,,,,
43299,90.0,,,,,,,0.7685848474502563,,,,,,
43349,90.0,,,,,,,0.8502920866012573,,,,,,
43399,90.0,,,,,,,0.8678345680236816,,,,,,
43449,90.0,,,,,,,0.7904672026634216,,,,,,
43499,90.0,,,,,,,0.7632752656936646,,,,,,
43549,90.0,,,,,,,0.697579562664032,,,,,,
43599,90.0,,,,,,,0.7024506330490112,,,,,,
43649,90.0,,,,,,,0.7747258543968201,,,,,,
43679,90.0,,,0.0,0.0,0.0,0.0,,4.999999873689376e-05,23.57111167907715,1.3291980028152466,9.880372047424316,12.361541748046875,0.7551974058151245
43680,,,2.8952079446753487e-05,,,,,,,,,,,
43699,91.0,,,,,,,0.9795751571655273,,,,,,
43749,91.0,,,,,,,0.7808992862701416,,,,,,
43799,91.0,,,,,,,0.7379578948020935,,,,,,
43849,91.0,,,,,,,0.8653500080108643,,,,,,
43899,91.0,,,,,,,0.9423835873603821,,,,,,
43949,91.0,,,,,,,0.8879941701889038,,,,,,
43999,91.0,,,,,,,0.8375767469406128,,,,,,
44049,91.0,,,,,,,0.8854068517684937,,,,,,
44099,91.0,,,,,,,0.7596800327301025,,,,,,
44149,91.0,,,,,,,0.7569715976715088,,,,,,
44159,91.0,,,0.0,0.0,0.0,0.0,,4.999999873689376e-05,24.634469985961914,1.2848914861679077,10.279131889343262,13.07044792175293,0.7790985703468323
44160,,,2.8570664653670974e-05,,,,,,,,,,,
44199,92.0,,,,,,,1.107694149017334,,,,,,
44249,92.0,,,,,,,1.0418825149536133,,,,,,
44299,92.0,,,,,,,1.123764991760254,,,,,,
44349,92.0,,,,,,,1.0652661323547363,,,,,,
44399,92.0,,,,,,,0.8499267101287842,,,,,,
44449,92.0,,,,,,,0.8033137321472168,,,,,,
44499,92.0,,,,,,,0.9643701314926147,,,,,,
44549,92.0,,,,,,,0.8803093433380127,,,,,,
44599,92.0,,,,,,,0.926628589630127,,,,,,
44639,92.0,,,0.0,0.0,0.0,0.0,,4.999999873689376e-05,23.637571334838867,1.4178112745285034,10.34559154510498,11.87416934967041,0.7560968399047852
44640,,,2.8188491342007183e-05,,,,,,,,,,,
44649,93.0,,,,,,,0.6850895285606384,,,,,,
44699,93.0,,,,,,,0.7761091589927673,,,,,,
44749,93.0,,,,,,,0.7914332151412964,,,,,,
44799,93.0,,,,,,,0.961082935333252,,,,,,
44849,93.0,,,,,,,0.6546096801757812,,,,,,
44899,93.0,,,,,,,0.8004965782165527,,,,,,
44949,93.0,,,,,,,0.9362837076187134,,,,,,
44999,93.0,,,,,,,0.8274338245391846,,,,,,
45049,93.0,,,,,,,0.8483238816261292,,,,,,
45099,93.0,,,,,,,0.7542247772216797,,,,,,
45119,93.0,,,0.0,0.0,0.0,0.0,,4.999999873689376e-05,23.726184844970703,1.1962782144546509,10.65573787689209,11.87416934967041,0.7694842219352722
45120,,,2.7805654099211097e-05,,,,,,,,,,,
45149,94.0,,,,,,,0.7943962812423706,,,,,,
45199,94.0,,,,,,,0.8248018026351929,,,,,,
45249,94.0,,,,,,,0.873234748840332,,,,,,
45299,94.0,,,,,,,1.1558303833007812,,,,,,
45349,94.0,,,,,,,0.9371649622917175,,,,,,
45399,94.0,,,,,,,0.8577406406402588,,,,,,
45449,94.0,,,,,,,1.0036656856536865,,,,,,
45499,94.0,,,,,,,1.0436419248580933,,,,,,
45549,94.0,,,,,,,0.7609037756919861,,,,,,
45598,94.0,,,,,,,,,23.482498168945312,1.7058041095733643,9.703145980834961,12.073549270629883,0.7718164324760437
