step,epoch,hp_metric,lr-Adam,train/CER,train/DER,train/IER,train/SER,train/loss,train/lr,val/CER,val/DER,val/IER,val/SER,val/loss
0,,-1.0,9.99999993922529e-09,,,,,,,,,,,
49,0.0,,,,,,,135.95068359375,,,,,,
99,0.0,,,,,,,135.26889038085938,,,,,,
149,0.0,,,,,,,139.6664276123047,,,,,,
199,0.0,,,,,,,129.00637817382812,,,,,,
249,0.0,,,,,,,132.7183074951172,,,,,,
299,0.0,,,,,,,155.1003875732422,,,,,,
349,0.0,,,,,,,188.20960998535156,,,,,,
399,0.0,,,,,,,168.8983917236328,,,,,,
449,0.0,,,,,,,137.3385467529297,,,,,,
479,0.0,,,0.0,0.0,0.0,0.0,,9.99999993922529e-09,658.8170166015625,582.0115356445312,0.0,76.80549621582031,132.7810821533203
480,,,5.564444563788129e-06,,,,,,,,,,,
499,1.0,,,,,,,150.2197265625,,,,,,
549,1.0,,,,,,,106.6204605102539,,,,,,
599,1.0,,,,,,,84.00997924804688,,,,,,
649,1.0,,,,,,,81.38037109375,,,,,,
699,1.0,,,,,,,81.03544616699219,,,,,,
749,1.0,,,,,,,49.5985221862793,,,,,,
799,1.0,,,,,,,44.55467224121094,,,,,,
849,1.0,,,,,,,29.9633731842041,,,,,,
899,1.0,,,,,,,28.66181182861328,,,,,,
949,1.0,,,,,,,18.925559997558594,,,,,,
959,1.0,,,0.0,0.0,0.0,0.0,,5.564444563788129e-06,100.0,0.0,100.0,0.0,15.481916427612305
960,,,1.1118889233330265e-05,,,,,,,,,,,
999,2.0,,,,,,,12.442462921142578,,,,,,
1049,2.0,,,,,,,9.51227855682373,,,,,,
1099,2.0,,,,,,,4.671481609344482,,,,,,
1149,2.0,,,,,,,3.6750986576080322,,,,,,
1199,2.0,,,,,,,3.419097900390625,,,,,,
1249,2.0,,,,,,,3.275397539138794,,,,,,
1299,2.0,,,,,,,3.2974207401275635,,,,,,
1349,2.0,,,,,,,3.2669076919555664,,,,,,
1399,2.0,,,,,,,3.3455746173858643,,,,,,
1439,2.0,,,0.0,0.0,0.0,0.0,,1.1118889233330265e-05,100.0,0.0,100.0,0.0,3.2579538822174072
1440,,,1.667333344812505e-05,,,,,,,,,,,
1449,3.0,,,,,,,3.135462760925293,,,,,,
1499,3.0,,,,,,,3.219029426574707,,,,,,
1549,3.0,,,,,,,3.3928375244140625,,,,,,
1599,3.0,,,,,,,3.2428646087646484,,,,,,
1649,3.0,,,,,,,3.189415216445923,,,,,,
1699,3.0,,,,,,,3.1705214977264404,,,,,,
1749,3.0,,,,,,,3.2750959396362305,,,,,,
1799,3.0,,,,,,,3.327396869659424,,,,,,
1849,3.0,,,,,,,3.1674857139587402,,,,,,
1899,3.0,,,,,,,3.3861517906188965,,,,,,
1919,3.0,,,0.0,0.0,0.0,0.0,,1.667333344812505e-05,100.0,0.0,100.0,0.0,3.2384109497070312
1920,,,2.2227777662919834e-05,,,,,,,,,,,
1949,4.0,,,,,,,3.240945816040039,,,,,,
1999,4.0,,,,,,,3.183692455291748,,,,,,
2049,4.0,,,,,,,3.2937703132629395,,,,,,
2099,4.0,,,,,,,3.1885015964508057,,,,,,
2149,4.0,,,,,,,3.232816457748413,,,,,,
2199,4.0,,,,,,,3.128636598587036,,,,,,
2249,4.0,,,,,,,3.081460952758789,,,,,,
2299,4.0,,,,,,,3.090104103088379,,,,,,
2349,4.0,,,,,,,3.1739630699157715,,,,,,
2399,4.0,,,0.0,0.0,0.0,0.0,2.909452199935913,2.2227777662919834e-05,100.0,0.0,100.0,0.0,3.0434463024139404
2400,,,2.778222187771462e-05,,,,,,,,,,,
2449,5.0,,,,,,,3.106616973876953,,,,,,
2499,5.0,,,,,,,3.180797576904297,,,,,,
2549,5.0,,,,,,,2.917722225189209,,,,,,
2599,5.0,,,,,,,3.0751867294311523,,,,,,
2649,5.0,,,,,,,3.065694808959961,,,,,,
2699,5.0,,,,,,,2.973201036453247,,,,,,
2749,5.0,,,,,,,2.919708251953125,,,,,,
2799,5.0,,,,,,,2.9977071285247803,,,,,,
2849,5.0,,,,,,,2.907085657119751,,,,,,
2879,5.0,,,0.0,0.0,0.0,0.0,,2.778222187771462e-05,100.0,0.0,100.0,0.0,2.8784232139587402
2880,,,3.3336666092509404e-05,,,,,,,,,,,
2899,6.0,,,,,,,3.1245625019073486,,,,,,
2949,6.0,,,,,,,2.8433966636657715,,,,,,
2999,6.0,,,,,,,2.9949121475219727,,,,,,
3049,6.0,,,,,,,2.8348240852355957,,,,,,
3099,6.0,,,,,,,2.870121717453003,,,,,,
3149,6.0,,,,,,,2.9128003120422363,,,,,,
3199,6.0,,,,,,,2.862788200378418,,,,,,
3249,6.0,,,,,,,2.86769437789917,,,,,,
3299,6.0,,,,,,,2.651308298110962,,,,,,
3349,6.0,,,,,,,2.7657971382141113,,,,,,
3359,6.0,,,0.0,0.0,0.0,0.0,,3.3336666092509404e-05,100.0,0.0,100.0,0.0,2.732846736907959
3360,,,3.889111030730419e-05,,,,,,,,,,,
3399,7.0,,,,,,,2.783637046813965,,,,,,
3449,7.0,,,,,,,2.859064817428589,,,,,,
3499,7.0,,,,,,,2.682260274887085,,,,,,
3549,7.0,,,,,,,2.829684257507324,,,,,,
3599,7.0,,,,,,,2.706810474395752,,,,,,
3649,7.0,,,,,,,2.6430084705352783,,,,,,
3699,7.0,,,,,,,2.5485682487487793,,,,,,
3749,7.0,,,,,,,2.8159499168395996,,,,,,
3799,7.0,,,,,,,2.5680360794067383,,,,,,
3839,7.0,,,0.0,0.0,0.0,0.0,,3.889111030730419e-05,100.0,0.0,100.0,0.0,2.531334638595581
3840,,,4.4445554522098973e-05,,,,,,,,,,,
3849,8.0,,,,,,,2.6301510334014893,,,,,,
3899,8.0,,,,,,,2.6212711334228516,,,,,,
3949,8.0,,,,,,,2.487531900405884,,,,,,
3999,8.0,,,,,,,2.4973371028900146,,,,,,
4049,8.0,,,,,,,2.496774673461914,,,,,,
4099,8.0,,,,,,,2.51450252532959,,,,,,
4149,8.0,,,,,,,2.235778331756592,,,,,,
4199,8.0,,,,,,,2.4081904888153076,,,,,,
4249,8.0,,,,,,,2.2108874320983887,,,,,,
4299,8.0,,,,,,,2.5008621215820312,,,,,,
4319,8.0,,,0.0,0.0,0.0,0.0,,4.4445554522098973e-05,100.0,0.0,100.0,0.0,2.287060499191284
4320,,,4.999999873689376e-05,,,,,,,,,,,
4349,9.0,,,,,,,2.3984527587890625,,,,,,
4399,9.0,,,,,,,2.3925671577453613,,,,,,
4449,9.0,,,,,,,2.4196338653564453,,,,,,
4499,9.0,,,,,,,2.485482931137085,,,,,,
4549,9.0,,,,,,,2.339953899383545,,,,,,
4599,9.0,,,,,,,2.223132610321045,,,,,,
4649,9.0,,,,,,,2.380023241043091,,,,,,
4699,9.0,,,,,,,2.292269229888916,,,,,,
4749,9.0,,,,,,,2.2424569129943848,,,,,,
4799,9.0,,,0.0,0.0,0.0,0.0,2.1582484245300293,4.999999873689376e-05,100.0,0.0,100.0,0.0,2.136021375656128
4800,,,4.999999873689376e-05,,,,,,,,,,,
4849,10.0,,,,,,,2.206779956817627,,,,,,
4899,10.0,,,,,,,2.121032238006592,,,,,,
4949,10.0,,,,,,,2.2086706161499023,,,,,,
4999,10.0,,,,,,,2.076510429382324,,,,,,
5049,10.0,,,,,,,2.0839860439300537,,,,,,
5099,10.0,,,,,,,1.9895167350769043,,,,,,
5149,10.0,,,,,,,2.1069746017456055,,,,,,
5199,10.0,,,,,,,2.155381917953491,,,,,,
5249,10.0,,,,,,,2.0525424480438232,,,,,,
5279,10.0,,,0.0,0.0,0.0,0.0,,4.999999873689376e-05,100.0,0.0,100.0,0.0,2.0089824199676514
5280,,,4.9996651796391234e-05,,,,,,,,,,,
5299,11.0,,,,,,,2.1535120010375977,,,,,,
5349,11.0,,,,,,,1.9789257049560547,,,,,,
5399,11.0,,,,,,,1.9914630651474,,,,,,
5449,11.0,,,,,,,2.004265546798706,,,,,,
5499,11.0,,,,,,,1.9557647705078125,,,,,,
5549,11.0,,,,,,,1.8562800884246826,,,,,,
5599,11.0,,,,,,,1.9034230709075928,,,,,,
5649,11.0,,,,,,,2.1693222522735596,,,,,,
5699,11.0,,,,,,,2.0673890113830566,,,,,,
5749,11.0,,,,,,,2.0170273780822754,,,,,,
5759,11.0,,,0.0,0.0,0.0,0.0,,4.9996651796391234e-05,96.7213134765625,0.0,96.4997787475586,0.22153301537036896,1.877342939376831
5760,,,4.9986603698926046e-05,,,,,,,,,,,
5799,12.0,,,,,,,2.027501344680786,,,,,,
5849,12.0,,,,,,,1.9091157913208008,,,,,,
5899,12.0,,,,,,,2.034486770629883,,,,,,
5949,12.0,,,,,,,1.9768035411834717,,,,,,
5999,12.0,,,,,,,2.175408363342285,,,,,,
6049,12.0,,,,,,,1.856020450592041,,,,,,
6099,12.0,,,,,,,1.8865704536437988,,,,,,
6149,12.0,,,,,,,1.8365333080291748,,,,,,
6199,12.0,,,,,,,1.9636574983596802,,,,,,
6239,12.0,,,0.0,0.0,0.0,0.0,,4.9986603698926046e-05,92.26850128173828,0.0,92.04696655273438,0.22153301537036896,1.7311158180236816
6240,,,4.996986535843462e-05,,,,,,,,,,,
6249,13.0,,,,,,,1.7868517637252808,,,,,,
6299,13.0,,,,,,,1.9109212160110474,,,,,,
6349,13.0,,,,,,,1.8057307004928589,,,,,,
6399,13.0,,,,,,,1.9011033773422241,,,,,,
6449,13.0,,,,,,,2.013603687286377,,,,,,
6499,13.0,,,,,,,1.8489406108856201,,,,,,
6549,13.0,,,,,,,2.104257583618164,,,,,,
6599,13.0,,,,,,,1.8251017332077026,,,,,,
6649,13.0,,,,,,,2.0211195945739746,,,,,,
6699,13.0,,,,,,,1.8864214420318604,,,,,,
6719,13.0,,,0.0,0.0,0.0,0.0,,4.996986535843462e-05,88.56889343261719,0.0,88.1258316040039,0.4430660307407379,1.6660958528518677
6720,,,4.994643313693814e-05,,,,,,,,,,,
6749,14.0,,,,,,,1.9595038890838623,,,,,,
6799,14.0,,,,,,,1.869220495223999,,,,,,
6849,14.0,,,,,,,1.6763980388641357,,,,,,
6899,14.0,,,,,,,1.8942080736160278,,,,,,
6949,14.0,,,,,,,1.6587507724761963,,,,,,
6999,14.0,,,,,,,1.9276525974273682,,,,,,
7049,14.0,,,,,,,1.7393220663070679,,,,,,
7099,14.0,,,,,,,1.5857517719268799,,,,,,
7149,14.0,,,,,,,1.8673503398895264,,,,,,
7199,14.0,,,0.0,0.0,0.0,0.0,1.7492974996566772,4.994643313693814e-05,86.90740203857422,0.0,86.33141326904297,0.575985848903656,1.630523920059204
7200,,,4.991632158635184e-05,,,,,,,,,,,
7249,15.0,,,,,,,1.7953441143035889,,,,,,
7299,15.0,,,,,,,1.70462167263031,,,,,,
7349,15.0,,,,,,,1.612274169921875,,,,,,
7399,15.0,,,,,,,1.815373420715332,,,,,,
7449,15.0,,,,,,,1.7448503971099854,,,,,,
7499,15.0,,,,,,,1.8931363821029663,,,,,,
7549,15.0,,,,,,,1.665636658668518,,,,,,
7599,15.0,,,,,,,1.7093839645385742,,,,,,
7649,15.0,,,,,,,1.6190869808197021,,,,,,
7679,15.0,,,0.0,0.0,0.0,0.0,,4.991632158635184e-05,85.62250518798828,0.0,85.20159149169922,0.4209127128124237,1.5803745985031128
7680,,,4.987953070667572e-05,,,,,,,,,,,
7699,16.0,,,,,,,1.7127255201339722,,,,,,
7749,16.0,,,,,,,1.653568983078003,,,,,,
7799,16.0,,,,,,,1.6876482963562012,,,,,,
7849,16.0,,,,,,,1.6256356239318848,,,,,,
7899,16.0,,,,,,,1.6429415941238403,,,,,,
7949,16.0,,,,,,,1.7584171295166016,,,,,,
7999,16.0,,,,,,,1.50325608253479,,,,,,
8049,16.0,,,,,,,1.6377177238464355,,,,,,
8099,16.0,,,,,,,1.81536865234375,,,,,,
8149,16.0,,,,,,,1.5897743701934814,,,,,,
8159,16.0,,,0.0,0.0,0.0,0.0,,4.987953070667572e-05,83.56224822998047,0.0,82.89765167236328,0.6645990014076233,1.512957215309143
8160,,,4.983607868780382e-05,,,,,,,,,,,
8199,17.0,,,,,,,1.5917466878890991,,,,,,
8249,17.0,,,,,,,1.6049549579620361,,,,,,
8299,17.0,,,,,,,1.6936373710632324,,,,,,
8349,17.0,,,,,,,1.6845691204071045,,,,,,
8399,17.0,,,,,,,1.633123517036438,,,,,,
8449,17.0,,,,,,,1.5920946598052979,,,,,,
8499,17.0,,,,,,,1.7960748672485352,,,,,,
8549,17.0,,,,,,,1.7473859786987305,,,,,,
8599,17.0,,,,,,,1.7596015930175781,,,,,,
8639,17.0,,,0.0,0.0,0.0,0.0,,4.983607868780382e-05,81.21400451660156,0.0,79.97341918945312,1.2405848503112793,1.4587979316711426
8640,,,4.978596916771494e-05,,,,,,,,,,,
8649,18.0,,,,,,,1.5625474452972412,,,,,,
8699,18.0,,,,,,,1.5561310052871704,,,,,,
8749,18.0,,,,,,,1.6454238891601562,,,,,,
8799,18.0,,,,,,,1.345128059387207,,,,,,
8849,18.0,,,,,,,1.6454330682754517,,,,,,
8899,18.0,,,,,,,1.49248468875885,,,,,,
8949,18.0,,,,,,,1.6578137874603271,,,,,,
8999,18.0,,,,,,,1.5923304557800293,,,,,,
9049,18.0,,,,,,,1.5082783699035645,,,,,,
9099,18.0,,,,,,,1.510298728942871,,,,,,
9119,18.0,,,0.0,0.0,0.0,0.0,,4.978596916771494e-05,76.22950744628906,0.0,75.05538177490234,1.1741249561309814,1.4127161502838135
9120,,,4.972922397428192e-05,,,,,,,,,,,
9149,19.0,,,,,,,1.7892096042633057,,,,,,
9199,19.0,,,,,,,1.7782971858978271,,,,,,
9249,19.0,,,,,,,1.5695278644561768,,,,,,
9299,19.0,,,,,,,1.666954517364502,,,,,,
9349,19.0,,,,,,,1.6712576150894165,,,,,,
9399,19.0,,,,,,,1.633753776550293,,,,,,
9449,19.0,,,,,,,1.5844444036483765,,,,,,
9499,19.0,,,,,,,1.6412873268127441,,,,,,
9549,19.0,,,,,,,1.7251300811767578,,,,,,
9599,19.0,,,0.0,0.0,0.0,0.0,1.6823538541793823,4.972922397428192e-05,69.82720184326172,0.04430660232901573,66.8586654663086,2.9242358207702637,1.375921607017517
9600,,,4.9665850383462384e-05,,,,,,,,,,,
9649,20.0,,,,,,,1.6575851440429688,,,,,,
9699,20.0,,,,,,,1.3783354759216309,,,,,,
9749,20.0,,,,,,,1.5992368459701538,,,,,,
9799,20.0,,,,,,,1.26230788230896,,,,,,
9849,20.0,,,,,,,1.502510666847229,,,,,,
9899,20.0,,,,,,,1.5126540660858154,,,,,,
9949,20.0,,,,,,,1.5746771097183228,,,,,,
9999,20.0,,,,,,,1.600258231163025,,,,,,
10049,20.0,,,,,,,1.8991923332214355,,,,,,
10079,20.0,,,0.0,0.0,0.0,0.0,,4.9665850383462384e-05,61.40895080566406,0.17722640931606293,55.98139190673828,5.250332355499268,1.314066767692566
10080,,,4.9595873861107975e-05,,,,,,,,,,,
10099,21.0,,,,,,,1.3388819694519043,,,,,,
10149,21.0,,,,,,,1.5618813037872314,,,,,,
10199,21.0,,,,,,,1.5377418994903564,,,,,,
10249,21.0,,,,,,,1.3813482522964478,,,,,,
10299,21.0,,,,,,,1.4723165035247803,,,,,,
10349,21.0,,,,,,,1.48232102394104,,,,,,
10399,21.0,,,,,,,1.5899109840393066,,,,,,
10449,21.0,,,,,,,1.4674813747406006,,,,,,
10499,21.0,,,,,,,1.5114161968231201,,,,,,
10549,21.0,,,,,,,1.3293232917785645,,,,,,
10559,21.0,,,0.0,0.0,0.0,0.0,,4.9595873861107975e-05,60.943729400634766,0.19937971234321594,55.93708419799805,4.8072662353515625,1.2797772884368896
10560,,,4.951930895913392e-05,,,,,,,,,,,
10599,22.0,,,,,,,1.491368293762207,,,,,,
10649,22.0,,,,,,,1.1156904697418213,,,,,,
10699,22.0,,,,,,,1.7028050422668457,,,,,,
10749,22.0,,,,,,,1.698556900024414,,,,,,
10799,22.0,,,,,,,1.4628552198410034,,,,,,
10849,22.0,,,,,,,1.1849422454833984,,,,,,
10899,22.0,,,,,,,1.5594779253005981,,,,,,
10949,22.0,,,,,,,1.4288172721862793,,,,,,
10999,22.0,,,,,,,1.3887513875961304,,,,,,
11039,22.0,,,0.0,0.0,0.0,0.0,,4.951930895913392e-05,54.8515739440918,0.22153301537036896,48.44926834106445,6.1807708740234375,1.2385894060134888
11040,,,4.943617750541307e-05,,,,,,,,,,,
11049,23.0,,,,,,,1.3351593017578125,,,,,,
11099,23.0,,,,,,,1.5559985637664795,,,,,,
11149,23.0,,,,,,,1.4138150215148926,,,,,,
11199,23.0,,,,,,,1.4578709602355957,,,,,,
11249,23.0,,,,,,,1.5930832624435425,,,,,,
11299,23.0,,,,,,,1.482129454612732,,,,,,
11349,23.0,,,,,,,1.4965143203735352,,,,,,
11399,23.0,,,,,,,1.5925021171569824,,,,,,
11449,23.0,,,,,,,1.3689255714416504,,,,,,
11499,23.0,,,,,,,1.2447476387023926,,,,,,
11519,23.0,,,0.0,0.0,0.0,0.0,,4.943617750541307e-05,50.79751968383789,0.46521931886672974,41.44882583618164,8.88347339630127,1.1655241250991821
11520,,,4.934650132781826e-05,,,,,,,,,,,
11549,24.0,,,,,,,1.422421932220459,,,,,,
11599,24.0,,,,,,,1.34083092212677,,,,,,
11649,24.0,,,,,,,1.3871378898620605,,,,,,
11699,24.0,,,,,,,1.5828920602798462,,,,,,
11749,24.0,,,,,,,1.414020299911499,,,,,,
11799,24.0,,,,,,,1.4029594659805298,,,,,,
11849,24.0,,,,,,,1.4179304838180542,,,,,,
11899,24.0,,,,,,,1.3147262334823608,,,,,,
11949,24.0,,,,,,,1.3809083700180054,,,,,,
11999,24.0,,,0.0,0.0,0.0,0.0,1.4163556098937988,4.934650132781826e-05,49.26893997192383,0.3987594246864319,39.25564956665039,9.614532470703125,1.1726478338241577
12000,,,4.925030589220114e-05,,,,,,,,,,,
12049,25.0,,,,,,,1.1640982627868652,,,,,,
12099,25.0,,,,,,,1.0674057006835938,,,,,,
12149,25.0,,,,,,,1.178175449371338,,,,,,
12199,25.0,,,,,,,1.4278992414474487,,,,,,
12249,25.0,,,,,,,1.3011153936386108,,,,,,
12299,25.0,,,,,,,1.2526452541351318,,,,,,
12349,25.0,,,,,,,1.3087553977966309,,,,,,
12399,25.0,,,,,,,1.411840796470642,,,,,,
12449,25.0,,,,,,,1.472001552581787,,,,,,
12479,25.0,,,0.0,0.0,0.0,0.0,,4.925030589220114e-05,49.04740905761719,0.7089056372642517,38.790428161621094,9.548072814941406,1.1944267749786377
12480,,,4.914761666441336e-05,,,,,,,,,,,
12499,26.0,,,,,,,1.1531949043273926,,,,,,
12549,26.0,,,,,,,1.3041185140609741,,,,,,
12599,26.0,,,,,,,1.2870323657989502,,,,,,
12649,26.0,,,,,,,1.0979896783828735,,,,,,
12699,26.0,,,,,,,1.3543671369552612,,,,,,
12749,26.0,,,,,,,1.3500094413757324,,,,,,
12799,26.0,,,,,,,1.1030977964401245,,,,,,
12849,26.0,,,,,,,1.2724988460540771,,,,,,
12899,26.0,,,,,,,1.192700743675232,,,,,,
12949,26.0,,,,,,,1.2672219276428223,,,,,,
12959,26.0,,,0.0,0.0,0.0,0.0,,4.914761666441336e-05,43.929996490478516,1.0633584260940552,32.698272705078125,10.168365478515625,1.128311038017273
12960,,,4.903846638626419e-05,,,,,,,,,,,
12999,27.0,,,,,,,1.1038846969604492,,,,,,
13049,27.0,,,,,,,1.6103577613830566,,,,,,
13099,27.0,,,,,,,1.3534367084503174,,,,,,
13149,27.0,,,,,,,1.337408185005188,,,,,,
13199,27.0,,,,,,,1.2268122434616089,,,,,,
13249,27.0,,,,,,,1.3585238456726074,,,,,,
13299,27.0,,,,,,,1.2335948944091797,,,,,,
13349,27.0,,,,,,,1.476198673248291,,,,,,
13399,27.0,,,,,,,1.213323712348938,,,,,,
13439,27.0,,,0.0,0.0,0.0,0.0,,4.903846638626419e-05,39.69871520996094,1.151971697807312,26.960567474365234,11.586175918579102,1.036842703819275
13440,,,4.8922876885626465e-05,,,,,,,,,,,
13449,28.0,,,,,,,1.3249895572662354,,,,,,
13499,28.0,,,,,,,1.213136076927185,,,,,,
13549,28.0,,,,,,,1.4015285968780518,,,,,,
13599,28.0,,,,,,,1.1939557790756226,,,,,,
13649,28.0,,,,,,,1.3663012981414795,,,,,,
13699,28.0,,,,,,,1.4023194313049316,,,,,,
13749,28.0,,,,,,,1.4045463800430298,,,,,,
13799,28.0,,,,,,,1.3750169277191162,,,,,,
13849,28.0,,,,,,,1.5073127746582031,,,,,,
13899,28.0,,,,,,,1.1823753118515015,,,,,,
13919,28.0,,,0.0,0.0,0.0,0.0,,4.8922876885626465e-05,40.5405387878418,0.8639787435531616,29.131589889526367,10.544971466064453,1.0718886852264404
13920,,,4.880088454228826e-05,,,,,,,,,,,
13949,29.0,,,,,,,1.2992887496948242,,,,,,
13999,29.0,,,,,,,1.2230782508850098,,,,,,
14049,29.0,,,,,,,0.9984846711158752,,,,,,
14099,29.0,,,,,,,1.3101515769958496,,,,,,
14149,29.0,,,,,,,1.2202314138412476,,,,,,
14199,29.0,,,,,,,1.5464633703231812,,,,,,
14249,29.0,,,,,,,1.3706440925598145,,,,,,
14299,29.0,,,,,,,1.248159408569336,,,,,,
14349,29.0,,,,,,,1.3310296535491943,,,,,,
14399,29.0,,,0.0,0.0,0.0,0.0,1.6349992752075195,4.880088454228826e-05,38.413822174072266,1.3070447444915771,26.894107818603516,10.212671279907227,1.0002080202102661
14400,,,4.8672522098058835e-05,,,,,,,,,,,
14449,30.0,,,,,,,1.1423392295837402,,,,,,
14499,30.0,,,,,,,1.2483727931976318,,,,,,
14549,30.0,,,,,,,1.1075522899627686,,,,,,
14599,30.0,,,,,,,1.2296797037124634,,,,,,
14649,30.0,,,,,,,1.1092780828475952,,,,,,
14699,30.0,,,,,,,1.272058129310608,,,,,,
14749,30.0,,,,,,,1.280599594116211,,,,,,
14799,30.0,,,,,,,1.2850223779678345,,,,,,
14849,30.0,,,,,,,1.33375883102417,,,,,,
14879,30.0,,,0.0,0.0,0.0,0.0,,4.8672522098058835e-05,38.54674530029297,0.9525919556617737,27.558706283569336,10.035445213317871,1.0303183794021606
14880,,,4.8537825932726264e-05,,,,,,,,,,,
14899,31.0,,,,,,,1.1807818412780762,,,,,,
14949,31.0,,,,,,,1.331958532333374,,,,,,
14999,31.0,,,,,,,1.1743427515029907,,,,,,
15049,31.0,,,,,,,1.3268216848373413,,,,,,
15099,31.0,,,,,,,1.1282461881637573,,,,,,
15149,31.0,,,,,,,1.2129982709884644,,,,,,
15199,31.0,,,,,,,1.034630298614502,,,,,,
15249,31.0,,,,,,,1.3617621660232544,,,,,,
15299,31.0,,,,,,,1.2803635597229004,,,,,,
15349,31.0,,,,,,,1.0868802070617676,,,,,,
15359,31.0,,,0.0,0.0,0.0,0.0,,4.8537825932726264e-05,34.957908630371094,1.6836508512496948,20.890562057495117,12.383695602416992,0.9930226802825928
15360,,,4.839682878809981e-05,,,,,,,,,,,
15399,32.0,,,,,,,1.3454501628875732,,,,,,
15449,32.0,,,,,,,1.1664960384368896,,,,,,
15499,32.0,,,,,,,1.045255422592163,,,,,,
15549,32.0,,,,,,,1.0191984176635742,,,,,,
15599,32.0,,,,,,,1.1357223987579346,,,,,,
15649,32.0,,,,,,,1.2833051681518555,,,,,,
15699,32.0,,,,,,,1.3407206535339355,,,,,,
15749,32.0,,,,,,,1.2261254787445068,,,,,,
15799,32.0,,,,,,,1.3025271892547607,,,,,,
15839,32.0,,,0.0,0.0,0.0,0.0,,4.839682878809981e-05,35.46743392944336,1.8387240171432495,21.843154907226562,11.785555839538574,1.0220922231674194
15840,,,4.824957431992516e-05,,,,,,,,,,,
15849,33.0,,,,,,,1.1087212562561035,,,,,,
15899,33.0,,,,,,,1.0538678169250488,,,,,,
15949,33.0,,,,,,,1.055344820022583,,,,,,
15999,33.0,,,,,,,1.2782630920410156,,,,,,
16049,33.0,,,,,,,0.9534104466438293,,,,,,
16099,33.0,,,,,,,1.08527410030365,,,,,,
16149,33.0,,,,,,,1.0130093097686768,,,,,,
16199,33.0,,,,,,,1.0688834190368652,,,,,,
16249,33.0,,,,,,,1.1914855241775513,,,,,,
16299,33.0,,,,,,,1.2176592350006104,,,,,,
16319,33.0,,,0.0,0.0,0.0,0.0,,4.824957431992516e-05,33.872398376464844,1.4621179103851318,20.536109924316406,11.87416934967041,0.9872808456420898
16320,,,4.809609890799038e-05,,,,,,,,,,,
16349,34.0,,,,,,,1.1138391494750977,,,,,,
16399,34.0,,,,,,,1.2132246494293213,,,,,,
16449,34.0,,,,,,,1.152884840965271,,,,,,
16499,34.0,,,,,,,1.1278512477874756,,,,,,
16549,34.0,,,,,,,1.1252162456512451,,,,,,
16599,34.0,,,,,,,1.1732698678970337,,,,,,
16649,34.0,,,,,,,1.1716841459274292,,,,,,
16699,34.0,,,,,,,1.4396928548812866,,,,,,
16749,34.0,,,,,,,1.1812071800231934,,,,,,
16799,34.0,,,0.0,0.0,0.0,0.0,0.9341356158256531,4.809609890799038e-05,36.33141326904297,0.9747452139854431,24.30217170715332,11.054496765136719,0.9722791314125061
16800,,,4.793644620804116e-05,,,,,,,,,,,
16849,35.0,,,,,,,1.0704498291015625,,,,,,
16899,35.0,,,,,,,1.0185774564743042,,,,,,
16949,35.0,,,,,,,1.2877171039581299,,,,,,
16999,35.0,,,,,,,1.2564010620117188,,,,,,
17049,35.0,,,,,,,1.192689061164856,,,,,,
17099,35.0,,,,,,,1.242861032485962,,,,,,
17149,35.0,,,,,,,1.1144081354141235,,,,,,
17199,35.0,,,,,,,0.9655423164367676,,,,,,
17249,35.0,,,,,,,0.9186589121818542,,,,,,
17279,35.0,,,0.0,0.0,0.0,0.0,,4.793644620804116e-05,32.609657287597656,1.5507310628890991,20.070890426635742,10.988037109375,0.9290943145751953
17280,,,4.7770659875823185e-05,,,,,,,,,,,
17299,36.0,,,,,,,1.2879114151000977,,,,,,
17349,36.0,,,,,,,1.282838225364685,,,,,,
17399,36.0,,,,,,,0.9938343167304993,,,,,,
17449,36.0,,,,,,,1.0021276473999023,,,,,,
17499,36.0,,,,,,,1.2163307666778564,,,,,,
17549,36.0,,,,,,,0.9534094333648682,,,,,,
17599,36.0,,,,,,,1.1650636196136475,,,,,,
17649,36.0,,,,,,,1.1705430746078491,,,,,,
17699,36.0,,,,,,,1.2572414875030518,,,,,,
17749,36.0,,,,,,,0.9791860580444336,,,,,,
17759,36.0,,,0.0,0.0,0.0,0.0,,4.7770659875823185e-05,32.25520706176758,1.2627381086349487,20.957021713256836,10.035445213317871,0.9014806747436523
17760,,,4.759878356708214e-05,,,,,,,,,,,
17799,37.0,,,,,,,0.975278377532959,,,,,,
17849,37.0,,,,,,,0.981845498085022,,,,,,
17899,37.0,,,,,,,1.3073744773864746,,,,,,
17949,37.0,,,,,,,1.2251111268997192,,,,,,
17999,37.0,,,,,,,1.1256028413772583,,,,,,
18049,37.0,,,,,,,0.9113187193870544,,,,,,
18099,37.0,,,,,,,1.2985752820968628,,,,,,
18149,37.0,,,,,,,1.2647229433059692,,,,,,
18199,37.0,,,,,,,0.8558011054992676,,,,,,
18239,37.0,,,0.0,0.0,0.0,0.0,,4.759878356708214e-05,32.764732360839844,1.9937970638275146,17.76694679260254,13.003987312316895,0.9702360033988953
18240,,,4.742086821352132e-05,,,,,,,,,,,
18249,38.0,,,,,,,0.9779999256134033,,,,,,
18299,38.0,,,,,,,0.8507300615310669,,,,,,
18349,38.0,,,,,,,1.1384358406066895,,,,,,
18399,38.0,,,,,,,1.7902804613113403,,,,,,
18449,38.0,,,,,,,1.2523038387298584,,,,,,
18499,38.0,,,,,,,1.1855652332305908,,,,,,
18549,38.0,,,,,,,0.9762241244316101,,,,,,
18599,38.0,,,,,,,1.0105018615722656,,,,,,
18649,38.0,,,,,,,1.1374907493591309,,,,,,
18699,38.0,,,,,,,1.0383131504058838,,,,,,
18719,38.0,,,0.0,0.0,0.0,0.0,,4.742086821352132e-05,32.698272705078125,1.3956578969955444,20.536109924316406,10.766504287719727,0.9126926064491272
18720,,,4.723695747088641e-05,,,,,,,,,,,
18749,39.0,,,,,,,1.1840455532073975,,,,,,
18799,39.0,,,,,,,1.1181855201721191,,,,,,
18849,39.0,,,,,,,0.9320969581604004,,,,,,
18899,39.0,,,,,,,1.1098747253417969,,,,,,
18949,39.0,,,,,,,0.9491651058197021,,,,,,
18999,39.0,,,,,,,1.1578197479248047,,,,,,
19049,39.0,,,,,,,1.1472735404968262,,,,,,
19099,39.0,,,,,,,1.1157004833221436,,,,,,
19149,39.0,,,,,,,1.2043308019638062,,,,,,
19199,39.0,,,0.0,0.0,0.0,0.0,1.2249641418457031,4.723695747088641e-05,31.32476806640625,1.617190957069397,18.210012435913086,11.497563362121582,0.9197344183921814
19200,,,4.704710590885952e-05,,,,,,,,,,,
19249,40.0,,,,,,,0.9683175086975098,,,,,,
19299,40.0,,,,,,,0.9677239060401917,,,,,,
19349,40.0,,,,,,,1.1110888719558716,,,,,,
19399,40.0,,,,,,,0.9243379831314087,,,,,,
19449,40.0,,,,,,,1.049530267715454,,,,,,
19499,40.0,,,,,,,1.105135202407837,,,,,,
19549,40.0,,,,,,,0.9969815015792847,,,,,,
19599,40.0,,,,,,,1.00475013256073,,,,,,
19649,40.0,,,,,,,1.107926607131958,,,,,,
19679,40.0,,,0.0,0.0,0.0,0.0,,4.704710590885952e-05,30.948162078857422,1.7058041095733643,17.190961837768555,12.051395416259766,0.9205886125564575
19680,,,4.685136445914395e-05,,,,,,,,,,,
19699,41.0,,,,,,,1.0514549016952515,,,,,,
19749,41.0,,,,,,,0.9636427164077759,,,,,,
19799,41.0,,,,,,,0.9918763637542725,,,,,,
19849,41.0,,,,,,,0.9296045899391174,,,,,,
19899,41.0,,,,,,,1.068783164024353,,,,,,
19949,41.0,,,,,,,1.037704348564148,,,,,,
19999,41.0,,,,,,,0.8184139728546143,,,,,,
20049,41.0,,,,,,,0.940977156162262,,,,,,
20099,41.0,,,,,,,1.003806471824646,,,,,,
20149,41.0,,,,,,,0.952060878276825,,,,,,
20159,41.0,,,0.0,0.0,0.0,0.0,,4.685136445914395e-05,29.86264991760254,1.5728843212127686,16.902969360351562,11.386796951293945,0.870509922504425
20160,,,4.6649784053443e-05,,,,,,,,,,,
20199,42.0,,,,,,,0.8591231107711792,,,,,,
20249,42.0,,,,,,,0.9134917855262756,,,,,,
20299,42.0,,,,,,,0.9341614842414856,,,,,,
20349,42.0,,,,,,,1.1757962703704834,,,,,,
20399,42.0,,,,,,,0.9407512545585632,,,,,,
20449,42.0,,,,,,,0.8730820417404175,,,,,,
20499,42.0,,,,,,,0.8093480467796326,,,,,,
20549,42.0,,,,,,,0.777470588684082,,,,,,
20599,42.0,,,,,,,1.0274887084960938,,,,,,
20639,42.0,,,0.0,0.0,0.0,0.0,,4.6649784053443e-05,29.042978286743164,1.617190957069397,16.17190933227539,11.253876686096191,0.8665679097175598
20640,,,4.644242289941758e-05,,,,,,,,,,,
20649,43.0,,,,,,,1.023146152496338,,,,,,
20699,43.0,,,,,,,0.8631468415260315,,,,,,
20749,43.0,,,,,,,1.083059549331665,,,,,,
20799,43.0,,,,,,,1.0685045719146729,,,,,,
20849,43.0,,,,,,,1.0520950555801392,,,,,,
20899,43.0,,,,,,,1.0092310905456543,,,,,,
20949,43.0,,,,,,,1.3524420261383057,,,,,,
20999,43.0,,,,,,,1.0606610774993896,,,,,,
21049,43.0,,,,,,,1.154820203781128,,,,,,
21099,43.0,,,,,,,1.2697877883911133,,,,,,
21119,43.0,,,0.0,0.0,0.0,0.0,,4.644242289941758e-05,28.533451080322266,1.617190957069397,15.684536933898926,11.23172378540039,0.8617278933525085
21120,,,4.622933192877099e-05,,,,,,,,,,,
21149,44.0,,,,,,,0.7981508374214172,,,,,,
21199,44.0,,,,,,,0.9690008759498596,,,,,,
21249,44.0,,,,,,,0.795030415058136,,,,,,
21299,44.0,,,,,,,0.921159565448761,,,,,,
21349,44.0,,,,,,,0.9043717384338379,,,,,,
21399,44.0,,,,,,,0.9738465547561646,,,,,,
21449,44.0,,,,,,,0.8349363803863525,,,,,,
21499,44.0,,,,,,,0.9770547747612,,,,,,
21549,44.0,,,,,,,0.9066159725189209,,,,,,
21599,44.0,,,0.0,0.0,0.0,0.0,0.9123238325119019,4.622933192877099e-05,28.489145278930664,1.5285778045654297,14.887018203735352,12.073549270629883,0.8569729924201965
21600,,,4.6010580263100564e-05,,,,,,,,,,,
21649,45.0,,,,,,,0.7893979549407959,,,,,,
21699,45.0,,,,,,,1.0582307577133179,,,,,,
21749,45.0,,,,,,,1.214972972869873,,,,,,
21799,45.0,,,,,,,1.0619804859161377,,,,,,
21849,45.0,,,,,,,1.1064186096191406,,,,,,
21899,45.0,,,,,,,1.2382193803787231,,,,,,
21949,45.0,,,,,,,0.9051593542098999,,,,,,
21999,45.0,,,,,,,0.9837096929550171,,,,,,
22049,45.0,,,,,,,1.0122705698013306,,,,,,
22079,45.0,,,0.0,0.0,0.0,0.0,,4.6010580263100564e-05,28.68852424621582,1.5064244270324707,16.216217041015625,10.9658842086792,0.8424290418624878
22080,,,4.57862151961308e-05,,,,,,,,,,,
22099,46.0,,,,,,,0.623494029045105,,,,,,
22149,46.0,,,,,,,0.7793899178504944,,,,,,
22199,46.0,,,,,,,1.1977335214614868,,,,,,
22249,46.0,,,,,,,0.8107312321662903,,,,,,
22299,46.0,,,,,,,1.0387883186340332,,,,,,
22349,46.0,,,,,,,1.1229724884033203,,,,,,
22399,46.0,,,,,,,1.0042967796325684,,,,,,
22449,46.0,,,,,,,1.1340914964675903,,,,,,
22499,46.0,,,,,,,0.9348418116569519,,,,,,
22549,46.0,,,,,,,1.1639175415039062,,,,,,
22559,46.0,,,0.0,0.0,0.0,0.0,,4.57862151961308e-05,27.979618072509766,1.5728843212127686,14.709792137145996,11.696943283081055,0.865233302116394
22560,,,4.555630948743783e-05,,,,,,,,,,,
22599,47.0,,,,,,,1.1268569231033325,,,,,,
22649,47.0,,,,,,,0.8127406239509583,,,,,,
22699,47.0,,,,,,,0.7087395787239075,,,,,,
22749,47.0,,,,,,,1.0469714403152466,,,,,,
22799,47.0,,,,,,,1.357323408126831,,,,,,
22849,47.0,,,,,,,0.8582481145858765,,,,,,
22899,47.0,,,,,,,0.9493682980537415,,,,,,
22949,47.0,,,,,,,0.9071953892707825,,,,,,
22999,47.0,,,,,,,1.0948219299316406,,,,,,
23039,47.0,,,0.0,0.0,0.0,0.0,,4.555630948743783e-05,28.112539291381836,1.4399645328521729,14.95347785949707,11.719096183776855,0.8439784646034241
23040,,,4.532091770670377e-05,,,,,,,,,,,
23049,48.0,,,,,,,0.8785563111305237,,,,,,
23099,48.0,,,,,,,0.9573799967765808,,,,,,
23149,48.0,,,,,,,0.9160507321357727,,,,,,
23199,48.0,,,,,,,0.90046226978302,,,,,,
23249,48.0,,,,,,,1.3402374982833862,,,,,,
23299,48.0,,,,,,,0.9031908512115479,,,,,,
23349,48.0,,,,,,,0.9501360654830933,,,,,,
23399,48.0,,,,,,,0.8501850962638855,,,,,,
23449,48.0,,,,,,,1.112916111946106,,,,,,
23499,48.0,,,,,,,0.9621555805206299,,,,,,
23519,48.0,,,0.0,0.0,0.0,0.0,,4.532091770670377e-05,28.666370391845703,1.0190517902374268,16.570669174194336,11.076650619506836,0.8321408033370972
23520,,,4.508010533754714e-05,,,,,,,,,,,
23549,49.0,,,,,,,0.8251513242721558,,,,,,
23599,49.0,,,,,,,0.9658762216567993,,,,,,
23649,49.0,,,,,,,0.9075663089752197,,,,,,
23699,49.0,,,,,,,0.7888497710227966,,,,,,
23749,49.0,,,,,,,0.8325045108795166,,,,,,
23799,49.0,,,,,,,0.7534638047218323,,,,,,
23849,49.0,,,,,,,0.8998351097106934,,,,,,
23899,49.0,,,,,,,1.01007080078125,,,,,,
23949,49.0,,,,,,,0.716171145439148,,,,,,
23999,49.0,,,0.0,0.0,0.0,0.0,1.0339539051055908,4.508010533754714e-05,27.71377944946289,1.2848914861679077,15.175010681152344,11.253876686096191,0.8344693183898926
24000,,,4.483394150156528e-05,,,,,,,,,,,
24049,50.0,,,,,,,1.0353457927703857,,,,,,
24099,50.0,,,,,,,0.779983639717102,,,,,,
24149,50.0,,,,,,,1.0305116176605225,,,,,,
24199,50.0,,,,,,,0.8444001078605652,,,,,,
24249,50.0,,,,,,,0.8639259934425354,,,,,,
24299,50.0,,,,,,,1.0586296319961548,,,,,,
24349,50.0,,,,,,,0.5505036115646362,,,,,,
24399,50.0,,,,,,,0.7131600975990295,,,,,,
24449,50.0,,,,,,,0.805957555770874,,,,,,
24479,50.0,,,0.0,0.0,0.0,0.0,,4.483394150156528e-05,27.381479263305664,1.7501107454299927,14.04519271850586,11.586175918579102,0.8093566298484802
24480,,,4.458249168237671e-05,,,,,,,,,,,
24499,51.0,,,,,,,0.9772164225578308,,,,,,
24549,51.0,,,,,,,0.9261132478713989,,,,,,
24599,51.0,,,,,,,0.7633670568466187,,,,,,
24649,51.0,,,,,,,0.8853519558906555,,,,,,
24699,51.0,,,,,,,1.0568327903747559,,,,,,
24749,51.0,,,,,,,0.8650528192520142,,,,,,
24799,51.0,,,,,,,1.0028111934661865,,,,,,
24849,51.0,,,,,,,0.9242595434188843,,,,,,
24899,51.0,,,,,,,0.7370779514312744,,,,,,
24949,51.0,,,,,,,0.7516262531280518,,,,,,
24959,51.0,,,0.0,0.0,0.0,0.0,,4.458249168237671e-05,26.00797462463379,2.237483501434326,12.339388847351074,11.431103706359863,0.7986890077590942
24960,,,4.4325828639557585e-05,,,,,,,,,,,
24999,52.0,,,,,,,0.7874794006347656,,,,,,
25049,52.0,,,,,,,0.7370413541793823,,,,,,
25099,52.0,,,,,,,1.1496665477752686,,,,,,
25149,52.0,,,,,,,1.0502710342407227,,,,,,
25199,52.0,,,,,,,1.1982858180999756,,,,,,
25249,52.0,,,,,,,0.6869450807571411,,,,,,
25299,52.0,,,,,,,0.7580206394195557,,,,,,
25349,52.0,,,,,,,0.6469210982322693,,,,,,
25399,52.0,,,,,,,0.8421721458435059,,,,,,
25439,52.0,,,0.0,0.0,0.0,0.0,,4.4325828639557585e-05,26.362428665161133,1.7058041095733643,13.779353141784668,10.877270698547363,0.793713390827179
25440,,,4.4064014218747616e-05,,,,,,,,,,,
25449,53.0,,,,,,,0.6979881525039673,,,,,,
25499,53.0,,,,,,,0.7911953926086426,,,,,,
25549,53.0,,,,,,,1.0754823684692383,,,,,,
25599,53.0,,,,,,,1.2459800243377686,,,,,,
25649,53.0,,,,,,,0.9160571098327637,,,,,,
25699,53.0,,,,,,,0.6724374890327454,,,,,,
25749,53.0,,,,,,,0.7831015586853027,,,,,,
25799,53.0,,,,,,,1.057971715927124,,,,,,
25849,53.0,,,,,,,1.0096064805984497,,,,,,
25899,53.0,,,,,,,0.9086114168167114,,,,,,
25919,53.0,,,0.0,0.0,0.0,0.0,,4.4064014218747616e-05,27.15994644165039,1.6614975929260254,13.048294067382812,12.450155258178711,0.8673412203788757
25920,,,4.3797124817501754e-05,,,,,,,,,,,
25949,54.0,,,,,,,1.0550898313522339,,,,,,
25999,54.0,,,,,,,1.1534242630004883,,,,,,
26049,54.0,,,,,,,0.73503577709198,,,,,,
26099,54.0,,,,,,,1.060366153717041,,,,,,
26149,54.0,,,,,,,0.8625833988189697,,,,,,
26199,54.0,,,,,,,0.8112777471542358,,,,,,
26249,54.0,,,,,,,1.0514628887176514,,,,,,
26299,54.0,,,,,,,0.9710959196090698,,,,,,
26349,54.0,,,,,,,1.032230257987976,,,,,,
26399,54.0,,,0.0,0.0,0.0,0.0,0.659497082233429,4.3797124817501754e-05,25.58706283569336,2.348249912261963,11.23172378540039,12.007088661193848,0.8127028346061707
26400,,,4.352523683337495e-05,,,,,,,,,,,
26449,55.0,,,,,,,0.9216623306274414,,,,,,
26499,55.0,,,,,,,0.7736608982086182,,,,,,
26549,55.0,,,,,,,0.9453869462013245,,,,,,
26599,55.0,,,,,,,1.0038347244262695,,,,,,
26649,55.0,,,,,,,1.0377769470214844,,,,,,
26699,55.0,,,,,,,1.0240767002105713,,,,,,
26749,55.0,,,,,,,0.9031217098236084,,,,,,
26799,55.0,,,,,,,0.696233332157135,,,,,,
26849,55.0,,,,,,,1.1253355741500854,,,,,,
26879,55.0,,,0.0,0.0,0.0,0.0,,4.352523683337495e-05,25.808595657348633,1.8165706396102905,12.804608345031738,11.187417030334473,0.7787773609161377
26880,,,4.3248415749985725e-05,,,,,,,,,,,
26899,56.0,,,,,,,0.8746563196182251,,,,,,
26949,56.0,,,,,,,0.6077515482902527,,,,,,
26999,56.0,,,,,,,0.6355695724487305,,,,,,
27049,56.0,,,,,,,0.787661612033844,,,,,,
27099,56.0,,,,,,,0.6491788029670715,,,,,,
27149,56.0,,,,,,,0.8262051343917847,,,,,,
27199,56.0,,,,,,,0.855621874332428,,,,,,
27249,56.0,,,,,,,0.8921995162963867,,,,,,
27299,56.0,,,,,,,1.1726579666137695,,,,,,
27349,56.0,,,,,,,0.8656038045883179,,,,,,
27359,56.0,,,0.0,0.0,0.0,0.0,,4.3248415749985725e-05,24.700929641723633,1.9716438055038452,11.165263175964355,11.5640230178833,0.7865136861801147
27360,,,4.296674524084665e-05,,,,,,,,,,,
27399,57.0,,,,,,,0.8693761229515076,,,,,,
27449,57.0,,,,,,,0.7434578537940979,,,,,,
27499,57.0,,,,,,,0.7970834374427795,,,,,,
27549,57.0,,,,,,,0.6802253723144531,,,,,,
27599,57.0,,,,,,,0.6518625617027283,,,,,,
27649,57.0,,,,,,,0.7538931369781494,,,,,,
27699,57.0,,,,,,,0.7442626357078552,,,,,,
27749,57.0,,,,,,,0.8626624345779419,,,,,,
27799,57.0,,,,,,,0.8030501008033752,,,,,,
27839,57.0,,,0.0,0.0,0.0,0.0,,4.296674524084665e-05,25.365530014038086,1.2848914861679077,12.073549270629883,12.007088661193848,0.7894193530082703
27840,,,4.268030170351267e-05,,,,,,,,,,,
27849,58.0,,,,,,,1.1671282052993774,,,,,,
27899,58.0,,,,,,,0.5700018405914307,,,,,,
27949,58.0,,,,,,,0.8786678910255432,,,,,,
27999,58.0,,,,,,,0.7643561363220215,,,,,,
28049,58.0,,,,,,,0.7844268679618835,,,,,,
28099,58.0,,,,,,,0.8976570963859558,,,,,,
28149,58.0,,,,,,,1.0168284177780151,,,,,,
28199,58.0,,,,,,,0.9267383813858032,,,,,,
28249,58.0,,,,,,,0.8116823434829712,,,,,,
28299,58.0,,,,,,,1.077986717224121,,,,,,
28319,58.0,,,0.0,0.0,0.0,0.0,,4.268030170351267e-05,25.34337615966797,1.2184315919876099,13.447053909301758,10.67789077758789,0.7789908051490784
28320,,,4.2389157897559926e-05,,,,,,,,,,,
28349,59.0,,,,,,,0.6474780440330505,,,,,,
28399,59.0,,,,,,,0.7712065577507019,,,,,,
28449,59.0,,,,,,,0.84598308801651,,,,,,
28499,59.0,,,,,,,0.6188931465148926,,,,,,
28549,59.0,,,,,,,0.893398106098175,,,,,,
28599,59.0,,,,,,,0.7048208117485046,,,,,,
28649,59.0,,,,,,,0.8264622688293457,,,,,,
28699,59.0,,,,,,,0.8150401711463928,,,,,,
28749,59.0,,,,,,,0.8556976318359375,,,,,,
28799,59.0,,,0.0,0.0,0.0,0.0,0.8884186744689941,4.2389157897559926e-05,24.213558197021484,2.0824103355407715,10.035445213317871,12.095702171325684,0.8286148905754089
28800,,,4.2093397496500984e-05,,,,,,,,,,,
28849,60.0,,,,,,,0.7011799812316895,,,,,,
28899,60.0,,,,,,,0.7438565492630005,,,,,,
28949,60.0,,,,,,,0.9770670533180237,,,,,,
28999,60.0,,,,,,,0.829702615737915,,,,,,
29049,60.0,,,,,,,0.9103215932846069,,,,,,
29099,60.0,,,,,,,0.7949966192245483,,,,,,
29149,60.0,,,,,,,0.9448601603507996,,,,,,
29199,60.0,,,,,,,0.9093201756477356,,,,,,
29249,60.0,,,,,,,0.8488600850105286,,,,,,
29279,60.0,,,0.0,0.0,0.0,0.0,,4.2093397496500984e-05,25.299070358276367,1.9494904279708862,11.652636528015137,11.696943283081055,0.7884631156921387
29280,,,4.17931005358696e-05,,,,,,,,,,,
29299,61.0,,,,,,,0.7987155318260193,,,,,,
29349,61.0,,,,,,,0.8012531995773315,,,,,,
29399,61.0,,,,,,,0.7395027875900269,,,,,,
29449,61.0,,,,,,,0.864241361618042,,,,,,
29499,61.0,,,,,,,0.9423885941505432,,,,,,
29549,61.0,,,,,,,0.7809966206550598,,,,,,
29599,61.0,,,,,,,0.6389333605766296,,,,,,
29649,61.0,,,,,,,0.8949954509735107,,,,,,
29699,61.0,,,,,,,0.7533724308013916,,,,,,
29749,61.0,,,,,,,0.9538246989250183,,,,,,
29759,61.0,,,0.0,0.0,0.0,0.0,,4.17931005358696e-05,23.637571334838867,1.5728843212127686,10.722197532653809,11.342490196228027,0.7644591331481934
29760,,,4.148835068917833e-05,,,,,,,,,,,
29799,62.0,,,,,,,1.082956075668335,,,,,,
29849,62.0,,,,,,,0.9570882320404053,,,,,,
29899,62.0,,,,,,,0.697800874710083,,,,,,
29949,62.0,,,,,,,0.8413569331169128,,,,,,
29999,62.0,,,,,,,0.9571844339370728,,,,,,
30049,62.0,,,,,,,0.8980754613876343,,,,,,
30099,62.0,,,,,,,1.0277915000915527,,,,,,
30149,62.0,,,,,,,0.5806828737258911,,,,,,
30199,62.0,,,,,,,1.0849320888519287,,,,,,
30239,62.0,,,0.0,0.0,0.0,0.0,,4.148835068917833e-05,23.482498168945312,1.7058041095733643,10.589278221130371,11.187417030334473,0.7704291939735413
30240,,,4.117922799196094e-05,,,,,,,,,,,
30249,63.0,,,,,,,0.8603734374046326,,,,,,
30299,63.0,,,,,,,1.055993676185608,,,,,,
30349,63.0,,,,,,,0.8122463226318359,,,,,,
30399,63.0,,,,,,,0.917913556098938,,,,,,
30449,63.0,,,,,,,0.6878496408462524,,,,,,
30499,63.0,,,,,,,0.8342556953430176,,,,,,
30549,63.0,,,,,,,0.7767801284790039,,,,,,
30599,63.0,,,,,,,0.8666945695877075,,,,,,
30649,63.0,,,,,,,0.8763837814331055,,,,,,
30699,63.0,,,,,,,0.8674299716949463,,,,,,
30719,63.0,,,0.0,0.0,0.0,0.0,,4.117922799196094e-05,23.15019989013672,1.617190957069397,10.389898300170898,11.143110275268555,0.7448351979255676
30720,,,4.08658197557088e-05,,,,,,,,,,,
30749,64.0,,,,,,,0.882797122001648,,,,,,
30799,64.0,,,,,,,0.8416595458984375,,,,,,
30849,64.0,,,,,,,0.7614942193031311,,,,,,
30899,64.0,,,,,,,0.8024545311927795,,,,,,
30949,64.0,,,,,,,0.8917210102081299,,,,,,
30999,64.0,,,,,,,0.7108651399612427,,,,,,
31049,64.0,,,,,,,0.7539255619049072,,,,,,
31099,64.0,,,,,,,0.7467390298843384,,,,,,
31149,64.0,,,,,,,0.8181827068328857,,,,,,
31199,64.0,,,0.0,0.0,0.0,0.0,0.8467322587966919,4.08658197557088e-05,22.77359390258789,1.5064244270324707,10.65573787689209,10.611431121826172,0.7164643406867981
31200,,,4.0548209653934464e-05,,,,,,,,,,,
31249,65.0,,,,,,,0.7122669219970703,,,,,,
31299,65.0,,,,,,,0.8356509208679199,,,,,,
31349,65.0,,,,,,,0.6834007501602173,,,,,,
31399,65.0,,,,,,,0.8760278224945068,,,,,,
31449,65.0,,,,,,,0.6873693466186523,,,,,,
31499,65.0,,,,,,,0.6596959233283997,,,,,,
31549,65.0,,,,,,,0.7124330997467041,,,,,,
31599,65.0,,,,,,,0.7179971933364868,,,,,,
31649,65.0,,,,,,,0.6824641823768616,,,,,,
31679,65.0,,,0.0,0.0,0.0,0.0,,4.0548209653934464e-05,24.72308349609375,1.3291980028152466,12.007088661193848,11.386796951293945,0.7992669939994812
31680,,,4.0226488636108115e-05,,,,,,,,,,,
31699,66.0,,,,,,,0.7029762268066406,,,,,,
31749,66.0,,,,,,,1.0532047748565674,,,,,,
31799,66.0,,,,,,,0.6912704110145569,,,,,,
31849,66.0,,,,,,,0.6701264381408691,,,,,,
31899,66.0,,,,,,,0.7515047788619995,,,,,,
31949,66.0,,,,,,,0.5936383008956909,,,,,,
31999,66.0,,,,,,,0.6119705438613892,,,,,,
32049,66.0,,,,,,,0.8558201789855957,,,,,,
32099,66.0,,,,,,,0.7650438547134399,,,,,,
32149,66.0,,,,,,,0.9504884481430054,,,,,,
32159,66.0,,,0.0,0.0,0.0,0.0,,4.0226488636108115e-05,22.419139862060547,2.0602569580078125,9.924678802490234,10.434205055236816,0.7071719169616699
32160,,,3.9900740375742316e-05,,,,,,,,,,,
32199,67.0,,,,,,,0.8807207345962524,,,,,,
32249,67.0,,,,,,,0.9587706327438354,,,,,,
32299,67.0,,,,,,,0.6560066342353821,,,,,,
32349,67.0,,,,,,,0.809806227684021,,,,,,
32399,67.0,,,,,,,0.7961356043815613,,,,,,
32449,67.0,,,,,,,0.7199801206588745,,,,,,
32499,67.0,,,,,,,0.8523113131523132,,,,,,
32549,67.0,,,,,,,0.8132602572441101,,,,,,
32599,67.0,,,,,,,0.771888017654419,,,,,,
32639,67.0,,,0.0,0.0,0.0,0.0,,3.9900740375742316e-05,25.166149139404297,1.5507310628890991,12.405848503112793,11.209569931030273,0.8002981543540955
32640,,,3.957105218432844e-05,,,,,,,,,,,
32649,68.0,,,,,,,0.776209831237793,,,,,,
32699,68.0,,,,,,,0.8319316506385803,,,,,,
32749,68.0,,,,,,,0.8317580223083496,,,,,,
32799,68.0,,,,,,,0.7395209670066833,,,,,,
32849,68.0,,,,,,,0.5315157175064087,,,,,,
32899,68.0,,,,,,,0.8703214526176453,,,,,,
32949,68.0,,,,,,,0.8220061659812927,,,,,,
32999,68.0,,,,,,,0.7886812686920166,,,,,,
33049,68.0,,,,,,,0.6967543363571167,,,,,,
33099,68.0,,,,,,,0.806145191192627,,,,,,
33119,68.0,,,0.0,0.0,0.0,0.0,,3.957105218432844e-05,23.726184844970703,1.5507310628890991,10.65573787689209,11.519716262817383,0.7779898047447205
33120,,,3.923751864931546e-05,,,,,,,,,,,
33149,69.0,,,,,,,0.7775558233261108,,,,,,
33199,69.0,,,,,,,0.8374217748641968,,,,,,
33249,69.0,,,,,,,0.8997323513031006,,,,,,
33299,69.0,,,,,,,0.9043428897857666,,,,,,
33349,69.0,,,,,,,0.5679831504821777,,,,,,
33399,69.0,,,,,,,0.887180507183075,,,,,,
33449,69.0,,,,,,,0.7014737129211426,,,,,,
33499,69.0,,,,,,,0.6461355686187744,,,,,,
33549,69.0,,,,,,,0.7961925268173218,,,,,,
33599,69.0,,,0.0,0.0,0.0,0.0,0.8136663436889648,3.923751864931546e-05,23.593265533447266,1.5728843212127686,10.766504287719727,11.253876686096191,0.7614464163780212
33600,,,3.890023072017357e-05,,,,,,,,,,,
33649,70.0,,,,,,,0.5676081776618958,,,,,,
33699,70.0,,,,,,,0.9489657878875732,,,,,,
33749,70.0,,,,,,,0.6222196817398071,,,,,,
33799,70.0,,,,,,,0.7320676445960999,,,,,,
33849,70.0,,,,,,,0.9632456302642822,,,,,,
33899,70.0,,,,,,,0.6720510721206665,,,,,,
33949,70.0,,,,,,,0.79388427734375,,,,,,
33999,70.0,,,,,,,0.8583164215087891,,,,,,
34049,70.0,,,,,,,0.7477607727050781,,,,,,
34079,70.0,,,0.0,0.0,0.0,0.0,,3.890023072017357e-05,21.97607421875,1.617190957069397,10.10190486907959,10.256978034973145,0.7277522683143616
34080,,,3.8559275708394125e-05,,,,,,,,,,,
34099,71.0,,,,,,,0.8408841490745544,,,,,,
34149,71.0,,,,,,,0.5055829286575317,,,,,,
34199,71.0,,,,,,,0.7432100176811218,,,,,,
34249,71.0,,,,,,,0.8133119940757751,,,,,,
34299,71.0,,,,,,,0.7253019213676453,,,,,,
34349,71.0,,,,,,,0.6346138715744019,,,,,,
34399,71.0,,,,,,,0.8865364789962769,,,,,,
34449,71.0,,,,,,,0.7573138475418091,,,,,,
34499,71.0,,,,,,,1.000455379486084,,,,,,
34549,71.0,,,,,,,0.8867263197898865,,,,,,
34559,71.0,,,0.0,0.0,0.0,0.0,,3.8559275708394125e-05,23.15019989013672,1.9273371696472168,9.326539993286133,11.896322250366211,0.7786543965339661
34560,,,3.821475547738373e-05,,,,,,,,,,,
34599,72.0,,,,,,,0.6999715566635132,,,,,,
34649,72.0,,,,,,,0.7593791484832764,,,,,,
34699,72.0,,,,,,,1.0465235710144043,,,,,,
34749,72.0,,,,,,,0.646680474281311,,,,,,
34799,72.0,,,,,,,0.814499020576477,,,,,,
34849,72.0,,,,,,,0.63756263256073,,,,,,
34899,72.0,,,,,,,0.5154259204864502,,,,,,
34949,72.0,,,,,,,0.6460515856742859,,,,,,
34999,72.0,,,,,,,0.7545771598815918,,,,,,
35039,72.0,,,0.0,0.0,0.0,0.0,,3.821475547738373e-05,22.419139862060547,1.9273371696472168,10.01329231262207,10.478510856628418,0.7559084892272949
35040,,,3.786675733863376e-05,,,,,,,,,,,
35049,73.0,,,,,,,0.6061420440673828,,,,,,
35099,73.0,,,,,,,0.40998175740242004,,,,,,
35149,73.0,,,,,,,0.7236895561218262,,,,,,
35199,73.0,,,,,,,0.5954614281654358,,,,,,
35249,73.0,,,,,,,0.8001445531845093,,,,,,
35299,73.0,,,,,,,0.6762950420379639,,,,,,
35349,73.0,,,,,,,0.7093628644943237,,,,,,
35399,73.0,,,,,,,0.5788514614105225,,,,,,
35449,73.0,,,,,,,0.8720367550849915,,,,,,
35499,73.0,,,,,,,0.6007961630821228,,,,,,
35519,73.0,,,0.0,0.0,0.0,0.0,,3.786675733863376e-05,23.172351837158203,1.1741249561309814,11.674789428710938,10.32343864440918,0.7364445328712463
35520,,,3.7515375879593194e-05,,,,,,,,,,,
35549,74.0,,,,,,,0.6616405248641968,,,,,,
35599,74.0,,,,,,,0.6897931098937988,,,,,,
35649,74.0,,,,,,,0.9291953444480896,,,,,,
35699,74.0,,,,,,,0.774596631526947,,,,,,
35749,74.0,,,,,,,0.740838885307312,,,,,,
35799,74.0,,,,,,,0.7111517190933228,,,,,,
35849,74.0,,,,,,,0.7979172468185425,,,,,,
35899,74.0,,,,,,,0.5185704827308655,,,,,,
35949,74.0,,,,,,,0.7277587056159973,,,,,,
35999,74.0,,,0.0,0.0,0.0,0.0,0.8626389503479004,3.7515375879593194e-05,22.308374404907227,1.7722641229629517,9.858219146728516,10.67789077758789,0.7410521507263184
36000,,,3.716070932568982e-05,,,,,,,,,,,
36049,75.0,,,,,,,0.7696362733840942,,,,,,
36099,75.0,,,,,,,0.5119119882583618,,,,,,
36149,75.0,,,,,,,0.9173363447189331,,,,,,
36199,75.0,,,,,,,0.6567348837852478,,,,,,
36249,75.0,,,,,,,0.5638059377670288,,,,,,
36299,75.0,,,,,,,0.49001559615135193,,,,,,
36349,75.0,,,,,,,0.9891669750213623,,,,,,
36399,75.0,,,,,,,0.5698614120483398,,,,,,
36449,75.0,,,,,,,0.7119417190551758,,,,,,
36479,75.0,,,0.0,0.0,0.0,0.0,,3.716070932568982e-05,21.688081741333008,1.5728843212127686,9.76960563659668,10.34559154510498,0.7118730545043945
36480,,,3.6802859540330246e-05,,,,,,,,,,,
36499,76.0,,,,,,,0.6405224800109863,,,,,,
36549,76.0,,,,,,,0.8879774212837219,,,,,,
36599,76.0,,,,,,,0.7653958797454834,,,,,,
36649,76.0,,,,,,,0.6993458271026611,,,,,,
36699,76.0,,,,,,,0.5074633359909058,,,,,,
36749,76.0,,,,,,,0.7824286222457886,,,,,,
36799,76.0,,,,,,,0.920673668384552,,,,,,
36849,76.0,,,,,,,0.7102099657058716,,,,,,
36899,76.0,,,,,,,0.5439667105674744,,,,,,
36949,76.0,,,,,,,0.7377809286117554,,,,,,
36959,76.0,,,0.0,0.0,0.0,0.0,,3.6802859540330246e-05,21.754541397094727,1.8387240171432495,9.149312973022461,10.766504287719727,0.7309941053390503
36960,,,3.644191747298464e-05,,,,,,,,,,,
36999,77.0,,,,,,,0.6708701252937317,,,,,,
37049,77.0,,,,,,,0.6019693613052368,,,,,,
37099,77.0,,,,,,,0.6801060438156128,,,,,,
37149,77.0,,,,,,,0.545008659362793,,,,,,
37199,77.0,,,,,,,0.7334809303283691,,,,,,
37249,77.0,,,,,,,0.6617991924285889,,,,,,
37299,77.0,,,,,,,0.9211341142654419,,,,,,
37349,77.0,,,,,,,0.5123347043991089,,,,,,
37399,77.0,,,,,,,0.7687833309173584,,,,,,
37439,77.0,,,0.0,0.0,0.0,0.0,,3.644191747298464e-05,21.73238754272461,2.303943395614624,7.709348678588867,11.719096183776855,0.7330679297447205
37440,,,3.60779813490808e-05,,,,,,,,,,,
37449,78.0,,,,,,,0.7411465644836426,,,,,,
37499,78.0,,,,,,,0.686363697052002,,,,,,
37549,78.0,,,,,,,0.576109766960144,,,,,,
37599,78.0,,,,,,,0.7407175302505493,,,,,,
37649,78.0,,,,,,,0.6895965337753296,,,,,,
37699,78.0,,,,,,,0.714939534664154,,,,,,
37749,78.0,,,,,,,0.645255982875824,,,,,,
37799,78.0,,,,,,,0.734798014163971,,,,,,
37849,78.0,,,,,,,0.860426664352417,,,,,,
37899,78.0,,,,,,,0.8709625005722046,,,,,,
37919,78.0,,,0.0,0.0,0.0,0.0,,3.60779813490808e-05,21.62162208557129,1.7279574871063232,9.237926483154297,10.65573787689209,0.7093291282653809
37920,,,3.571115667000413e-05,,,,,,,,,,,
37949,79.0,,,,,,,0.5583855509757996,,,,,,
37999,79.0,,,,,,,0.8212416172027588,,,,,,
38049,79.0,,,,,,,0.8235504627227783,,,,,,
38099,79.0,,,,,,,0.6743704080581665,,,,,,
38149,79.0,,,,,,,0.8067765235900879,,,,,,
38199,79.0,,,,,,,0.6172733902931213,,,,,,
38249,79.0,,,,,,,0.7338697910308838,,,,,,
38299,79.0,,,,,,,0.7176976203918457,,,,,,
38349,79.0,,,,,,,0.4991879463195801,,,,,,
38399,79.0,,,0.0,0.0,0.0,0.0,0.5552422404289246,3.571115667000413e-05,21.577314376831055,1.9937970638275146,8.905627250671387,10.67789077758789,0.7293980121612549
38400,,,3.534153802320361e-05,,,,,,,,,,,
38449,80.0,,,,,,,0.8269078731536865,,,,,,
38499,80.0,,,,,,,0.9206588268280029,,,,,,
38549,80.0,,,,,,,0.6662729978561401,,,,,,
38599,80.0,,,,,,,0.7921669483184814,,,,,,
38649,80.0,,,,,,,0.5879215598106384,,,,,,
38699,80.0,,,,,,,0.6470358371734619,,,,,,
38749,80.0,,,,,,,0.4290410280227661,,,,,,
38799,80.0,,,,,,,0.7125662565231323,,,,,,
38849,80.0,,,,,,,0.8548552989959717,,,,,,
38879,80.0,,,0.0,0.0,0.0,0.0,,3.534153802320361e-05,21.289321899414062,1.6836508512496948,9.282233238220215,10.32343864440918,0.722994327545166
38880,,,3.496923091006465e-05,,,,,,,,,,,
38899,81.0,,,,,,,0.5192934274673462,,,,,,
38949,81.0,,,,,,,0.528235912322998,,,,,,
38999,81.0,,,,,,,0.7490677237510681,,,,,,
39049,81.0,,,,,,,0.7921252250671387,,,,,,
39099,81.0,,,,,,,0.724040150642395,,,,,,
39149,81.0,,,,,,,1.0530800819396973,,,,,,
39199,81.0,,,,,,,0.7014416456222534,,,,,,
39249,81.0,,,,,,,0.751236617565155,,,,,,
39299,81.0,,,,,,,0.7630547285079956,,,,,,
39349,81.0,,,,,,,0.7539874315261841,,,,,,
39359,81.0,,,0.0,0.0,0.0,0.0,,3.496923091006465e-05,20.69118309020996,1.6393442153930664,9.304386138916016,9.747452735900879,0.69707190990448
39360,,,3.4594333556015044e-05,,,,,,,,,,,
39399,82.0,,,,,,,0.5861799716949463,,,,,,
39449,82.0,,,,,,,0.7230612635612488,,,,,,
39499,82.0,,,,,,,0.6642857789993286,,,,,,
39549,82.0,,,,,,,0.8817493319511414,,,,,,
39599,82.0,,,,,,,0.7156939506530762,,,,,,
39649,82.0,,,,,,,0.5644381046295166,,,,,,
39699,82.0,,,,,,,0.5854496359825134,,,,,,
39749,82.0,,,,,,,0.6534379124641418,,,,,,
39799,82.0,,,,,,,0.7959549427032471,,,,,,
39839,82.0,,,0.0,0.0,0.0,0.0,,3.4594333556015044e-05,21.24501609802246,1.9716438055038452,8.263181686401367,11.010190963745117,0.7417469620704651
39840,,,3.4216947824461386e-05,,,,,,,,,,,
39849,83.0,,,,,,,0.578152060508728,,,,,,
39899,83.0,,,,,,,0.888898491859436,,,,,,
39949,83.0,,,,,,,0.7093130946159363,,,,,,
39999,83.0,,,,,,,0.4689818322658539,,,,,,
40049,83.0,,,,,,,0.684865415096283,,,,,,
40099,83.0,,,,,,,0.6611073017120361,,,,,,
40149,83.0,,,,,,,0.5530593395233154,,,,,,
40199,83.0,,,,,,,0.8253923654556274,,,,,,
40249,83.0,,,,,,,0.9425170421600342,,,,,,
40299,83.0,,,,,,,0.6408517956733704,,,,,,
40319,83.0,,,0.0,0.0,0.0,0.0,,3.4216947824461386e-05,20.292423248291016,1.5285778045654297,8.130261421203613,10.633584022521973,0.7086818218231201
40320,,,3.383718285476789e-05,,,,,,,,,,,
40349,84.0,,,,,,,0.45369696617126465,,,,,,
40399,84.0,,,,,,,0.6517536640167236,,,,,,
40449,84.0,,,,,,,0.6628233194351196,,,,,,
40499,84.0,,,,,,,0.8230894804000854,,,,,,
40549,84.0,,,,,,,0.6524912118911743,,,,,,
40599,84.0,,,,,,,0.49270036816596985,,,,,,
40649,84.0,,,,,,,0.4340190291404724,,,,,,
40699,84.0,,,,,,,0.7151350975036621,,,,,,
40749,84.0,,,,,,,0.7250484228134155,,,,,,
40799,84.0,,,0.0,0.0,0.0,0.0,0.7442618608474731,3.383718285476789e-05,21.134248733520508,1.9937970638275146,8.661940574645996,10.478510856628418,0.7071176767349243
40800,,,3.3455136872362345e-05,,,,,,,,,,,
40849,85.0,,,,,,,0.5099296569824219,,,,,,
40899,85.0,,,,,,,0.550550639629364,,,,,,
40949,85.0,,,,,,,0.5010222792625427,,,,,,
40999,85.0,,,,,,,0.5882247090339661,,,,,,
41049,85.0,,,,,,,0.5348885655403137,,,,,,
41099,85.0,,,,,,,0.7253217697143555,,,,,,
41149,85.0,,,,,,,0.6796412467956543,,,,,,
41199,85.0,,,,,,,0.6082280874252319,,,,,,
41249,85.0,,,,,,,0.4713970720767975,,,,,,
41279,85.0,,,0.0,0.0,0.0,0.0,,3.3455136872362345e-05,21.3779354095459,2.0381035804748535,7.90872859954834,11.431103706359863,0.7405643463134766
41280,,,3.307091537863016e-05,,,,,,,,,,,
41299,86.0,,,,,,,0.43549737334251404,,,,,,
41349,86.0,,,,,,,0.6346967816352844,,,,,,
41399,86.0,,,,,,,0.723002552986145,,,,,,
41449,86.0,,,,,,,0.8413103818893433,,,,,,
41499,86.0,,,,,,,0.5755702257156372,,,,,,
41549,86.0,,,,,,,0.5614220499992371,,,,,,
41599,86.0,,,,,,,0.6159279346466064,,,,,,
41649,86.0,,,,,,,0.5500867366790771,,,,,,
41699,86.0,,,,,,,0.4302956759929657,,,,,,
41749,86.0,,,,,,,0.6349323987960815,,,,,,
41759,86.0,,,0.0,0.0,0.0,0.0,,3.307091537863016e-05,22.264066696166992,2.0602569580078125,9.260079383850098,10.943730354309082,0.7539806365966797
41760,,,3.268462751293555e-05,,,,,,,,,,,
41799,87.0,,,,,,,0.8533338308334351,,,,,,
41849,87.0,,,,,,,0.6045194864273071,,,,,,
41899,87.0,,,,,,,0.6490342020988464,,,,,,
41949,87.0,,,,,,,0.7398842573165894,,,,,,
41999,87.0,,,,,,,0.9256657361984253,,,,,,
42049,87.0,,,,,,,0.611721932888031,,,,,,
42099,87.0,,,,,,,0.612165629863739,,,,,,
42149,87.0,,,,,,,0.509993314743042,,,,,,
42199,87.0,,,,,,,0.6590480208396912,,,,,,
42239,87.0,,,0.0,0.0,0.0,0.0,,3.268462751293555e-05,21.444395065307617,1.6836508512496948,9.149312973022461,10.611431121826172,0.7468641996383667
42240,,,3.22963715007063e-05,,,,,,,,,,,
42249,88.0,,,,,,,0.5070071220397949,,,,,,
42299,88.0,,,,,,,0.7630736827850342,,,,,,
42349,88.0,,,,,,,0.49889492988586426,,,,,,
42399,88.0,,,,,,,0.49773386120796204,,,,,,
42449,88.0,,,,,,,0.7034004330635071,,,,,,
42499,88.0,,,,,,,0.7487504482269287,,,,,,
42549,88.0,,,,,,,0.5368368625640869,,,,,,
42599,88.0,,,,,,,0.5761178731918335,,,,,,
42649,88.0,,,,,,,0.9473427534103394,,,,,,
42699,88.0,,,,,,,0.3770042061805725,,,,,,
42719,88.0,,,0.0,0.0,0.0,0.0,,3.22963715007063e-05,20.846256256103516,1.5064244270324707,8.661940574645996,10.67789077758789,0.7159994840621948
42720,,,3.1906260119285434e-05,,,,,,,,,,,
42749,89.0,,,,,,,0.5503126382827759,,,,,,
42799,89.0,,,,,,,0.7475743293762207,,,,,,
42849,89.0,,,,,,,0.616841197013855,,,,,,
42899,89.0,,,,,,,0.5978901386260986,,,,,,
42949,89.0,,,,,,,0.6652501821517944,,,,,,
42999,89.0,,,,,,,0.802295446395874,,,,,,
43049,89.0,,,,,,,0.75616455078125,,,,,,
43099,89.0,,,,,,,0.8007321953773499,,,,,,
43149,89.0,,,,,,,0.7107268571853638,,,,,,
43199,89.0,,,0.0,0.0,0.0,0.0,0.49753281474113464,3.1906260119285434e-05,20.713336944580078,1.9716438055038452,8.617633819580078,10.124058723449707,0.7002130746841431
43200,,,3.151439523207955e-05,,,,,,,,,,,
43249,90.0,,,,,,,0.52245032787323,,,,,,
43299,90.0,,,,,,,0.4722632169723511,,,,,,
43349,90.0,,,,,,,0.5493049621582031,,,,,,
43399,90.0,,,,,,,0.6172312498092651,,,,,,
43449,90.0,,,,,,,0.6585647463798523,,,,,,
43499,90.0,,,,,,,0.5058820247650146,,,,,,
43549,90.0,,,,,,,0.40778616070747375,,,,,,
43599,90.0,,,,,,,0.5560716390609741,,,,,,
43649,90.0,,,,,,,0.44850385189056396,,,,,,
43679,90.0,,,0.0,0.0,0.0,0.0,,3.151439523207955e-05,20.314577102661133,1.8830305337905884,7.775808811187744,10.65573787689209,0.7211453318595886
43680,,,3.112088597845286e-05,,,,,,,,,,,
43699,91.0,,,,,,,0.6444272994995117,,,,,,
43749,91.0,,,,,,,0.5306316018104553,,,,,,
43799,91.0,,,,,,,0.5328141450881958,,,,,,
43849,91.0,,,,,,,0.49010178446769714,,,,,,
43899,91.0,,,,,,,0.5406421422958374,,,,,,
43949,91.0,,,,,,,0.6375768780708313,,,,,,
43999,91.0,,,,,,,0.623868465423584,,,,,,
44049,91.0,,,,,,,0.6687648296356201,,,,,,
44099,91.0,,,,,,,0.7422282099723816,,,,,,
44149,91.0,,,,,,,0.5545521974563599,,,,,,
44159,91.0,,,0.0,0.0,0.0,0.0,,3.112088597845286e-05,19.84935760498047,2.1267168521881104,7.842268466949463,9.880372047424316,0.6766648888587952
44160,,,3.072584149776958e-05,,,,,,,,,,,
44199,92.0,,,,,,,0.5951593518257141,,,,,,
44249,92.0,,,,,,,0.5686115026473999,,,,,,
44299,92.0,,,,,,,0.5455074310302734,,,,,,
44349,92.0,,,,,,,0.581538200378418,,,,,,
44399,92.0,,,,,,,0.5207352638244629,,,,,,
44449,92.0,,,,,,,0.5379379987716675,,,,,,
44499,92.0,,,,,,,0.6937364339828491,,,,,,
44549,92.0,,,,,,,0.7503300905227661,,,,,,
44599,92.0,,,,,,,0.5442988276481628,,,,,,
44639,92.0,,,0.0,0.0,0.0,0.0,,3.072584149776958e-05,20.713336944580078,2.370403289794922,7.5764288902282715,10.766504287719727,0.7170087099075317
44640,,,3.032936729141511e-05,,,,,,,,,,,
44649,93.0,,,,,,,0.5985449552536011,,,,,,
44699,93.0,,,,,,,0.6185092329978943,,,,,,
44749,93.0,,,,,,,0.5254529714584351,,,,,,
44799,93.0,,,,,,,0.7717251777648926,,,,,,
44849,93.0,,,,,,,0.5638088583946228,,,,,,
44899,93.0,,,,,,,0.5249896049499512,,,,,,
44949,93.0,,,,,,,0.43044590950012207,,,,,,
44999,93.0,,,,,,,0.5996479988098145,,,,,,
45049,93.0,,,,,,,0.5162097215652466,,,,,,
45099,93.0,,,,,,,0.6468936800956726,,,,,,
45119,93.0,,,0.0,0.0,0.0,0.0,,3.032936729141511e-05,20.669029235839844,1.5064244270324707,9.105006217956543,10.057598114013672,0.7002502083778381
45120,,,2.9931572498753667e-05,,,,,,,,,,,
45149,94.0,,,,,,,0.6836782693862915,,,,,,
45199,94.0,,,,,,,0.651199460029602,,,,,,
45249,94.0,,,,,,,0.5634812116622925,,,,,,
45299,94.0,,,,,,,0.614332914352417,,,,,,
45349,94.0,,,,,,,0.6083935499191284,,,,,,
45399,94.0,,,,,,,0.5888416767120361,,,,,,
45449,94.0,,,,,,,0.528846263885498,,,,,,
45499,94.0,,,,,,,0.6664958000183105,,,,,,
45549,94.0,,,,,,,0.5697528719902039,,,,,,
45599,94.0,,,0.0,0.0,0.0,0.0,1.3084993362426758,2.9931572498753667e-05,19.937971115112305,1.9273371696472168,7.975188255310059,10.035445213317871,0.6952341794967651
45600,,,2.9532568078138866e-05,,,,,,,,,,,
45649,95.0,,,,,,,0.6779252290725708,,,,,,
45699,95.0,,,,,,,0.5043467283248901,,,,,,
45749,95.0,,,,,,,0.624631404876709,,,,,,
45799,95.0,,,,,,,0.6138542890548706,,,,,,
45849,95.0,,,,,,,0.3886319100856781,,,,,,
45899,95.0,,,,,,,0.6200959086418152,,,,,,
45949,95.0,,,,,,,0.5867064595222473,,,,,,
45999,95.0,,,,,,,0.6090953350067139,,,,,,
46049,95.0,,,,,,,0.5280098915100098,,,,,,
46079,95.0,,,0.0,0.0,0.0,0.0,,2.9532568078138866e-05,20.38103675842285,1.5285778045654297,8.373948097229004,10.478510856628418,0.6914482116699219
46080,,,2.9132459530956112e-05,,,,,,,,,,,
46099,96.0,,,,,,,0.6314378976821899,,,,,,
46149,96.0,,,,,,,0.5604987144470215,,,,,,
46199,96.0,,,,,,,0.49152082204818726,,,,,,
46249,96.0,,,,,,,0.6038166284561157,,,,,,
46299,96.0,,,,,,,0.5942045450210571,,,,,,
46349,96.0,,,,,,,0.7092658877372742,,,,,,
46399,96.0,,,,,,,0.5714254975318909,,,,,,
46449,96.0,,,,,,,0.34113824367523193,,,,,,
46499,96.0,,,,,,,0.6365536451339722,,,,,,
46549,96.0,,,,,,,0.532538890838623,,,,,,
46559,96.0,,,0.0,0.0,0.0,0.0,,2.9132459530956112e-05,19.915817260742188,1.7058041095733643,8.019495010375977,10.190518379211426,0.6918706893920898
46560,,,2.8731357815559022e-05,,,,,,,,,,,
46599,97.0,,,,,,,0.5565004944801331,,,,,,
46649,97.0,,,,,,,0.6882108449935913,,,,,,
46699,97.0,,,,,,,0.7088045477867126,,,,,,
46749,97.0,,,,,,,0.41926345229148865,,,,,,
46799,97.0,,,,,,,0.4676337242126465,,,,,,
46849,97.0,,,,,,,0.7398765683174133,,,,,,
46899,97.0,,,,,,,0.4001203775405884,,,,,,
46949,97.0,,,,,,,0.4623172879219055,,,,,,
46999,97.0,,,,,,,0.4362717866897583,,,,,,
47039,97.0,,,0.0,0.0,0.0,0.0,,2.8731357815559022e-05,19.78289794921875,1.6393442153930664,8.373948097229004,9.76960563659668,0.6854931712150574
47040,,,2.8329373890301213e-05,,,,,,,,,,,
47049,98.0,,,,,,,0.583992600440979,,,,,,
47099,98.0,,,,,,,0.9314824938774109,,,,,,
47149,98.0,,,,,,,0.5424819588661194,,,,,,
47199,98.0,,,,,,,0.37108853459358215,,,,,,
47249,98.0,,,,,,,0.5871425867080688,,,,,,
47299,98.0,,,,,,,0.6252331137657166,,,,,,
47349,98.0,,,,,,,0.43956321477890015,,,,,,
47399,98.0,,,,,,,0.371711790561676,,,,,,
47449,98.0,,,,,,,0.7005559206008911,,,,,,
47499,98.0,,,,,,,0.7877439856529236,,,,,,
47519,98.0,,,0.0,0.0,0.0,0.0,,2.8329373890301213e-05,19.073991775512695,2.0159504413604736,7.02259635925293,10.035445213317871,0.6755261421203613
47520,,,2.7926615075557493e-05,,,,,,,,,,,
47549,99.0,,,,,,,0.3994258642196655,,,,,,
47599,99.0,,,,,,,0.6174979209899902,,,,,,
47649,99.0,,,,,,,0.6270116567611694,,,,,,
47699,99.0,,,,,,,0.5055465698242188,,,,,,
47749,99.0,,,,,,,0.5840744972229004,,,,,,
47799,99.0,,,,,,,0.5162273049354553,,,,,,
47849,99.0,,,,,,,0.622803807258606,,,,,,
47899,99.0,,,,,,,0.4868232011795044,,,,,,
47949,99.0,,,,,,,0.6083221435546875,,,,,,
47999,99.0,,,0.0,0.0,0.0,0.0,0.41439852118492126,2.7926615075557493e-05,18.98537826538086,1.6614975929260254,7.000442981719971,10.32343864440918,0.6810798645019531
48000,,,2.7523194148670882e-05,,,,,,,,,,,
48049,100.0,,,,,,,0.5617170333862305,,,,,,
48099,100.0,,,,,,,0.7163446545600891,,,,,,
48149,100.0,,,,,,,0.5208297967910767,,,,,,
48199,100.0,,,,,,,0.62702476978302,,,,,,
48249,100.0,,,,,,,0.49715572595596313,,,,,,
48299,100.0,,,,,,,0.5838950276374817,,,,,,
48349,100.0,,,,,,,0.5355958938598633,,,,,,
48399,100.0,,,,,,,0.5498250722885132,,,,,,
48449,100.0,,,,,,,0.5420395135879517,,,,,,
48479,100.0,,,0.0,0.0,0.0,0.0,,2.7523194148670882e-05,18.896764755249023,1.8387240171432495,7.6207356452941895,9.43730640411377,0.6910284757614136
48480,,,2.711921843001619e-05,,,,,,,,,,,
48499,101.0,,,,,,,0.40183109045028687,,,,,,
48549,101.0,,,,,,,0.5408130288124084,,,,,,
48599,101.0,,,,,,,0.6594058871269226,,,,,,
48649,101.0,,,,,,,0.8674935698509216,,,,,,
48699,101.0,,,,,,,0.499810129404068,,,,,,
48749,101.0,,,,,,,0.660167396068573,,,,,,
48799,101.0,,,,,,,0.4440057873725891,,,,,,
48849,101.0,,,,,,,0.6807448863983154,,,,,,
48899,101.0,,,,,,,0.5246874094009399,,,,,,
48949,101.0,,,,,,,0.6558479070663452,,,,,,
48959,101.0,,,0.0,0.0,0.0,0.0,,2.711921843001619e-05,20.580415725708008,1.5728843212127686,8.329641342163086,10.67789077758789,0.7170892953872681
48960,,,2.671480251592584e-05,,,,,,,,,,,
48999,102.0,,,,,,,0.5973250865936279,,,,,,
49049,102.0,,,,,,,0.568341851234436,,,,,,
49099,102.0,,,,,,,0.7873848676681519,,,,,,
49149,102.0,,,,,,,0.910293698310852,,,,,,
49199,102.0,,,,,,,0.5406688451766968,,,,,,
49249,102.0,,,,,,,0.4826427102088928,,,,,,
49299,102.0,,,,,,,0.4005471467971802,,,,,,
49349,102.0,,,,,,,0.6744180917739868,,,,,,
49399,102.0,,,,,,,0.6640856862068176,,,,,,
49439,102.0,,,0.0,0.0,0.0,0.0,,2.671480251592584e-05,19.58351707458496,1.860877275466919,7.6207356452941895,10.10190486907959,0.6975080370903015
49440,,,2.6310051907785237e-05,,,,,,,,,,,
49449,103.0,,,,,,,0.4568462371826172,,,,,,
49499,103.0,,,,,,,0.5141048431396484,,,,,,
49549,103.0,,,,,,,0.4008127748966217,,,,,,
49599,103.0,,,,,,,0.5604914426803589,,,,,,
49649,103.0,,,,,,,0.7862433791160583,,,,,,
49699,103.0,,,,,,,0.40816158056259155,,,,,,
49749,103.0,,,,,,,0.384796679019928,,,,,,
49799,103.0,,,,,,,0.36449867486953735,,,,,,
49849,103.0,,,,,,,0.45107150077819824,,,,,,
49899,103.0,,,,,,,0.6466979384422302,,,,,,
49919,103.0,,,0.0,0.0,0.0,0.0,,2.6310051907785237e-05,19.871511459350586,2.0824103355407715,6.513070583343506,11.276030540466309,0.7416577935218811
49920,,,2.5905081201926805e-05,,,,,,,,,,,
49949,104.0,,,,,,,0.5981221199035645,,,,,,
49999,104.0,,,,,,,0.6613595485687256,,,,,,
50049,104.0,,,,,,,0.5496909022331238,,,,,,
50099,104.0,,,,,,,0.5678879022598267,,,,,,
50149,104.0,,,,,,,0.46364861726760864,,,,,,
50199,104.0,,,,,,,0.6921279430389404,,,,,,
50249,104.0,,,,,,,0.48540085554122925,,,,,,
50299,104.0,,,,,,,0.4894636869430542,,,,,,
50349,104.0,,,,,,,0.6113264560699463,,,,,,
50399,104.0,,,0.0,0.0,0.0,0.0,0.7893173694610596,2.5905081201926805e-05,20.181657791137695,2.0159504413604736,7.244129180908203,10.921577453613281,0.7338235974311829
50400,,,2.5499999537714757e-05,,,,,,,,,,,
50449,105.0,,,,,,,0.4864373505115509,,,,,,
50499,105.0,,,,,,,0.4687248766422272,,,,,,
50549,105.0,,,,,,,0.37860119342803955,,,,,,
50599,105.0,,,,,,,0.5407459735870361,,,,,,
50649,105.0,,,,,,,0.4158851206302643,,,,,,
50699,105.0,,,,,,,0.554825484752655,,,,,,
50749,105.0,,,,,,,0.7492877244949341,,,,,,
50799,105.0,,,,,,,0.6715538501739502,,,,,,
50849,105.0,,,,,,,0.5040567517280579,,,,,,
50879,105.0,,,0.0,0.0,0.0,0.0,,2.5499999537714757e-05,19.361984252929688,1.4842711687088013,7.842268466949463,10.035445213317871,0.7147340178489685
50880,,,2.509491787350271e-05,,,,,,,,,,,
50899,106.0,,,,,,,0.3295988440513611,,,,,,
50949,106.0,,,,,,,0.43618839979171753,,,,,,
50999,106.0,,,,,,,0.35946452617645264,,,,,,
51049,106.0,,,,,,,0.48691922426223755,,,,,,
51099,106.0,,,,,,,0.6618088483810425,,,,,,
51149,106.0,,,,,,,0.5081318616867065,,,,,,
51199,106.0,,,,,,,0.37135615944862366,,,,,,
51249,106.0,,,,,,,0.5430551171302795,,,,,,
51299,106.0,,,,,,,0.39652231335639954,,,,,,
51349,106.0,,,,,,,0.31303641200065613,,,,,,
51359,106.0,,,0.0,0.0,0.0,0.0,,2.509491787350271e-05,19.029685974121094,1.7279574871063232,7.133362770080566,10.168365478515625,0.7020121216773987
51360,,,2.4689947167644277e-05,,,,,,,,,,,
51399,107.0,,,,,,,0.7055903673171997,,,,,,
51449,107.0,,,,,,,0.4384358525276184,,,,,,
51499,107.0,,,,,,,0.44326362013816833,,,,,,
51549,107.0,,,,,,,0.672015905380249,,,,,,
51599,107.0,,,,,,,0.591444194316864,,,,,,
51649,107.0,,,,,,,0.5332776308059692,,,,,,
51699,107.0,,,,,,,0.6345422267913818,,,,,,
51749,107.0,,,,,,,0.6925792694091797,,,,,,
51799,107.0,,,,,,,0.4163179099559784,,,,,,
51839,107.0,,,0.0,0.0,0.0,0.0,,2.4689947167644277e-05,19.760744094848633,1.7058041095733643,7.399202346801758,10.65573787689209,0.7443559765815735
51840,,,2.4285198378493078e-05,,,,,,,,,,,
51849,108.0,,,,,,,0.5380215048789978,,,,,,
51899,108.0,,,,,,,0.6115466356277466,,,,,,
51949,108.0,,,,,,,0.7812719345092773,,,,,,
51999,108.0,,,,,,,0.4042738080024719,,,,,,
52049,108.0,,,,,,,0.6877247095108032,,,,,,
52099,108.0,,,,,,,0.3882562816143036,,,,,,
52149,108.0,,,,,,,0.6654629111289978,,,,,,
52199,108.0,,,,,,,0.4114460349082947,,,,,,
52249,108.0,,,,,,,0.9488884210586548,,,,,,
52299,108.0,,,,,,,0.5241551399230957,,,,,,
52319,108.0,,,0.0,0.0,0.0,0.0,,2.4285198378493078e-05,19.84935760498047,1.9937970638275146,7.5542755126953125,10.301284790039062,0.7489221096038818
52320,,,2.3880780645413324e-05,,,,,,,,,,,
52349,109.0,,,,,,,0.37162187695503235,,,,,,
52399,109.0,,,,,,,0.43293291330337524,,,,,,
52449,109.0,,,,,,,0.47319623827934265,,,,,,
52499,109.0,,,,,,,0.4835285246372223,,,,,,
52549,109.0,,,,,,,0.5642726421356201,,,,,,
52599,109.0,,,,,,,0.8126782178878784,,,,,,
52649,109.0,,,,,,,0.46680501103401184,,,,,,
52699,109.0,,,,,,,0.4533458352088928,,,,,,
52749,109.0,,,,,,,0.5541022419929504,,,,,,
52799,109.0,,,0.0,0.0,0.0,0.0,0.3063078224658966,2.3880780645413324e-05,19.78289794921875,1.4178112745285034,8.263181686401367,10.10190486907959,0.7194331288337708
52800,,,2.3476806745748036e-05,,,,,,,,,,,
52849,110.0,,,,,,,0.5280917882919312,,,,,,
52899,110.0,,,,,,,0.686076283454895,,,,,,
52949,110.0,,,,,,,0.5791212320327759,,,,,,
52999,110.0,,,,,,,0.40889811515808105,,,,,,
53049,110.0,,,,,,,0.39910855889320374,,,,,,
53099,110.0,,,,,,,0.6269616484642029,,,,,,
53149,110.0,,,,,,,0.5106245279312134,,,,,,
53199,110.0,,,,,,,0.3759908080101013,,,,,,
53249,110.0,,,,,,,0.5030954480171204,,,,,,
53279,110.0,,,0.0,0.0,0.0,0.0,,2.3476806745748036e-05,18.653079986572266,2.1267168521881104,6.645990371704102,9.880372047424316,0.6975021958351135
53280,,,2.307338399987202e-05,,,,,,,,,,,
53299,111.0,,,,,,,0.4311949610710144,,,,,,
53349,111.0,,,,,,,0.3395671248435974,,,,,,
53399,111.0,,,,,,,0.307361364364624,,,,,,
53449,111.0,,,,,,,0.47791850566864014,,,,,,
53499,111.0,,,,,,,0.40737879276275635,,,,,,
53549,111.0,,,,,,,0.6374642848968506,,,,,,
53599,111.0,,,,,,,0.46302148699760437,,,,,,
53649,111.0,,,,,,,0.5258033275604248,,,,,,
53699,111.0,,,,,,,0.4574645459651947,,,,,,
53749,111.0,,,,,,,0.5131304860115051,,,,,,
53759,111.0,,,0.0,0.0,0.0,0.0,,2.307338399987202e-05,19.960124969482422,1.9494904279708862,7.6207356452941895,10.389898300170898,0.7288042902946472
53760,,,2.2670627004117705e-05,,,,,,,,,,,
53799,112.0,,,,,,,0.4503783583641052,,,,,,
53849,112.0,,,,,,,0.5060781240463257,,,,,,
53899,112.0,,,,,,,0.5212260484695435,,,,,,
53949,112.0,,,,,,,0.40403369069099426,,,,,,
53999,112.0,,,,,,,0.49981221556663513,,,,,,
54049,112.0,,,,,,,0.5259493589401245,,,,,,
54099,112.0,,,,,,,0.4056223928928375,,,,,,
54149,112.0,,,,,,,0.3699449598789215,,,,,,
54199,112.0,,,,,,,0.37668031454086304,,,,,,
54239,112.0,,,0.0,0.0,0.0,0.0,,2.2670627004117705e-05,19.339832305908203,2.0381035804748535,7.221976280212402,10.079751968383789,0.7115878462791443
54240,,,2.2268641259870492e-05,,,,,,,,,,,
54249,113.0,,,,,,,0.4785816967487335,,,,,,
54299,113.0,,,,,,,0.5390280485153198,,,,,,
54349,113.0,,,,,,,0.371151328086853,,,,,,
54399,113.0,,,,,,,0.3408423662185669,,,,,,
54449,113.0,,,,,,,0.4470406174659729,,,,,,
54499,113.0,,,,,,,0.5061913132667542,,,,,,
54549,113.0,,,,,,,0.6803205013275146,,,,,,
54599,113.0,,,,,,,0.38197869062423706,,,,,,
54649,113.0,,,,,,,0.45260700583457947,,,,,,
54699,113.0,,,,,,,0.5169538259506226,,,,,,
54719,113.0,,,0.0,0.0,0.0,0.0,,2.2268641259870492e-05,18.60877227783203,2.0159504413604736,6.911829948425293,9.680992126464844,0.709955632686615
54720,,,2.1867541363462806e-05,,,,,,,,,,,
54749,114.0,,,,,,,0.4808974862098694,,,,,,
54799,114.0,,,,,,,0.47292983531951904,,,,,,
54849,114.0,,,,,,,0.3762974739074707,,,,,,
54899,114.0,,,,,,,0.38927575945854187,,,,,,
54949,114.0,,,,,,,0.5444943904876709,,,,,,
54999,114.0,,,,,,,0.3913976848125458,,,,,,
55049,114.0,,,,,,,0.7713000178337097,,,,,,
55099,114.0,,,,,,,0.46796467900276184,,,,,,
55149,114.0,,,,,,,0.3299400210380554,,,,,,
55199,114.0,,,0.0,0.0,0.0,0.0,0.8863863348960876,2.1867541363462806e-05,18.67523193359375,1.860877275466919,7.044749736785889,9.76960563659668,0.7066149711608887
55200,,,2.1467432816280052e-05,,,,,,,,,,,
55249,115.0,,,,,,,0.5045946836471558,,,,,,
55299,115.0,,,,,,,0.3471261262893677,,,,,,
55349,115.0,,,,,,,0.4459857940673828,,,,,,
55399,115.0,,,,,,,0.4627770781517029,,,,,,
55449,115.0,,,,,,,0.6362578868865967,,,,,,
55499,115.0,,,,,,,0.3800694942474365,,,,,,
55549,115.0,,,,,,,0.35655081272125244,,,,,,
