step,epoch,hp_metric,lr-Adam,test/CER,test/DER,test/IER,test/SER,test/loss,train/CER,train/DER,train/IER,train/SER,train/loss,train/lr,val/CER,val/DER,val/IER,val/SER,val/loss
0,,-1.0,4.999999987376214e-07,,,,,,,,,,,,,,,,
49,0.0,,,,,,,,,,,,0.4052419066429138,,,,,,
99,0.0,,,,,,,,,,,,0.20985549688339233,,,,,,
149,0.0,,,,,,,,,,,,0.23685100674629211,,,,,,
199,0.0,,,,,,,,,,,,0.38181808590888977,,,,,,
249,0.0,,,,,,,,,,,,0.34565186500549316,,,,,,
299,0.0,,,,,,,,,,,,0.32645362615585327,,,,,,
349,0.0,,,,,,,,,,,,0.34667256474494934,,,,,,
399,0.0,,,,,,,,,,,,0.2518748641014099,,,,,,
449,0.0,,,,,,,,,,,,0.2839457094669342,,,,,,
479,0.0,,,,,,,,0.0,0.0,0.0,0.0,,4.999999987376214e-07,16.814355850219727,2.0602569580078125,5.471865177154541,9.282233238220215,0.7113726735115051
480,,,5.000308647140628e-07,,,,,,,,,,,,,,,,
499,1.0,,,,,,,,,,,,0.3102831244468689,,,,,,
549,1.0,,,,,,,,,,,,0.5469869375228882,,,,,,
599,1.0,,,,,,,,,,,,0.28513064980506897,,,,,,
649,1.0,,,,,,,,,,,,0.327653706073761,,,,,,
699,1.0,,,,,,,,,,,,0.32560914754867554,,,,,,
749,1.0,,,,,,,,,,,,0.3068733215332031,,,,,,
799,1.0,,,,,,,,,,,,0.3054639399051666,,,,,,
849,1.0,,,,,,,,,,,,0.24816881120204926,,,,,,
899,1.0,,,,,,,,,,,,0.42645150423049927,,,,,,
949,1.0,,,,,,,,,,,,0.2726063132286072,,,,,,
959,1.0,,,,,,,,0.0,0.0,0.0,0.0,,5.000308647140628e-07,17.013734817504883,1.9716438055038452,5.516171932220459,9.525918960571289,0.7109172940254211
960,,,5.001233489565493e-07,,,,,,,,,,,,,,,,
999,2.0,,,,,,,,,,,,0.5584224462509155,,,,,,
1049,2.0,,,,,,,,,,,,0.383587121963501,,,,,,
1099,2.0,,,,,,,,,,,,0.28067249059677124,,,,,,
1149,2.0,,,,,,,,,,,,0.3983914256095886,,,,,,
1199,2.0,,,,,,,,,,,,0.3564817011356354,,,,,,
1249,2.0,,,,,,,,,,,,0.5804773569107056,,,,,,
1299,2.0,,,,,,,,,,,,0.48205775022506714,,,,,,
1349,2.0,,,,,,,,,,,,0.3635596036911011,,,,,,
1399,2.0,,,,,,,,,,,,0.3776887357234955,,,,,,
1439,2.0,,,,,,,,0.0,0.0,0.0,0.0,,5.001233489565493e-07,17.124502182006836,2.0824103355407715,5.516171932220459,9.525918960571289,0.7151637673377991
1440,,,5.002775083084998e-07,,,,,,,,,,,,,,,,
1449,3.0,,,,,,,,,,,,0.48983481526374817,,,,,,
1499,3.0,,,,,,,,,,,,0.29551318287849426,,,,,,
1549,3.0,,,,,,,,,,,,0.322839617729187,,,,,,
1599,3.0,,,,,,,,,,,,0.29309239983558655,,,,,,
1649,3.0,,,,,,,,,,,,0.34169089794158936,,,,,,
1699,3.0,,,,,,,,,,,,0.29281681776046753,,,,,,
1749,3.0,,,,,,,,,,,,0.3597373962402344,,,,,,
1799,3.0,,,,,,,,,,,,0.34318068623542786,,,,,,
1849,3.0,,,,,,,,,,,,0.3058612644672394,,,,,,
1899,3.0,,,,,,,,,,,,0.32624635100364685,,,,,,
1919,3.0,,,,,,,,0.0,0.0,0.0,0.0,,5.002775083084998e-07,16.79220199584961,2.1045634746551514,5.272485733032227,9.415152549743652,0.7133453488349915
1920,,,5.004933427699143e-07,,,,,,,,,,,,,,,,
1949,4.0,,,,,,,,,,,,0.32471489906311035,,,,,,
1999,4.0,,,,,,,,,,,,0.5516589879989624,,,,,,
2049,4.0,,,,,,,,,,,,0.32692939043045044,,,,,,
2099,4.0,,,,,,,,,,,,0.3494827449321747,,,,,,
2149,4.0,,,,,,,,,,,,0.310616135597229,,,,,,
2199,4.0,,,,,,,,,,,,0.49468278884887695,,,,,,
2249,4.0,,,,,,,,,,,,0.2824122905731201,,,,,,
2299,4.0,,,,,,,,,,,,0.4982776939868927,,,,,,
2349,4.0,,,,,,,,,,,,0.2798554599285126,,,,,,
2399,4.0,,,,,,,,0.0,0.0,0.0,0.0,0.22867904603481293,5.004933427699143e-07,16.814355850219727,1.9937970638275146,5.538325309753418,9.282233238220215,0.7083160281181335
2400,,,5.007706818105362e-07,,,,,,,,,,,,,,,,
2449,5.0,,,,,,,,,,,,0.457133948802948,,,,,,
2499,5.0,,,,,,,,,,,,0.35608601570129395,,,,,,
2549,5.0,,,,,,,,,,,,0.23540878295898438,,,,,,
2599,5.0,,,,,,,,,,,,0.2949584424495697,,,,,,
2649,5.0,,,,,,,,,,,,0.2669389545917511,,,,,,
2699,5.0,,,,,,,,,,,,0.34076613187789917,,,,,,
2749,5.0,,,,,,,,,,,,0.2501636743545532,,,,,,
2799,5.0,,,,,,,,,,,,0.23231899738311768,,,,,,
2849,5.0,,,,,,,,,,,,0.39436185359954834,,,,,,
2879,5.0,,,,,,,,0.0,0.0,0.0,0.0,,5.007706818105362e-07,16.814355850219727,2.0602569580078125,5.383252143859863,9.370845794677734,0.7206450700759888
2880,,,5.011095254303655e-07,,,,,,,,,,,,,,,,
2899,6.0,,,,,,,,,,,,0.33183544874191284,,,,,,
2949,6.0,,,,,,,,,,,,0.2539706230163574,,,,,,
2999,6.0,,,,,,,,,,,,0.2566806972026825,,,,,,
3049,6.0,,,,,,,,,,,,0.39097124338150024,,,,,,
3099,6.0,,,,,,,,,,,,0.3754514455795288,,,,,,
3149,6.0,,,,,,,,,,,,0.3554890751838684,,,,,,
3199,6.0,,,,,,,,,,,,0.2531065046787262,,,,,,
3249,6.0,,,,,,,,,,,,0.37137115001678467,,,,,,
3299,6.0,,,,,,,,,,,,0.30731528997421265,,,,,,
3349,6.0,,,,,,,,,,,,0.47170934081077576,,,,,,
3359,6.0,,,,,,,,0.0,0.0,0.0,0.0,,5.011095254303655e-07,16.947275161743164,2.303943395614624,5.427558898925781,9.215773582458496,0.7097005844116211
3360,,,5.015097599425644e-07,,,,,,,,,,,,,,,,
3399,7.0,,,,,,,,,,,,0.46441811323165894,,,,,,
3449,7.0,,,,,,,,,,,,0.3048627972602844,,,,,,
3499,7.0,,,,,,,,,,,,0.19849775731563568,,,,,,
3549,7.0,,,,,,,,,,,,0.49369505047798157,,,,,,
3599,7.0,,,,,,,,,,,,0.3121965527534485,,,,,,
3649,7.0,,,,,,,,,,,,0.37096381187438965,,,,,,
3699,7.0,,,,,,,,,,,,0.30592775344848633,,,,,,
3749,7.0,,,,,,,,,,,,0.3153810501098633,,,,,,
3799,7.0,,,,,,,,,,,,0.27714037895202637,,,,,,
3839,7.0,,,,,,,,0.0,0.0,0.0,0.0,,5.015097599425644e-07,16.83650779724121,2.0159504413604736,5.538325309753418,9.282233238220215,0.7178339958190918
3840,,,5.019713285037142e-07,,,,,,,,,,,,,,,,
3849,8.0,,,,,,,,,,,,0.5077846050262451,,,,,,
3899,8.0,,,,,,,,,,,,0.46471643447875977,,,,,,
3949,8.0,,,,,,,,,,,,0.20643216371536255,,,,,,
3999,8.0,,,,,,,,,,,,0.35435914993286133,,,,,,
4049,8.0,,,,,,,,,,,,0.3578963875770569,,,,,,
4099,8.0,,,,,,,,,,,,0.24908757209777832,,,,,,
4149,8.0,,,,,,,,,,,,0.38837361335754395,,,,,,
4199,8.0,,,,,,,,,,,,0.19762469828128815,,,,,,
4249,8.0,,,,,,,,,,,,0.3189176321029663,,,,,,
4299,8.0,,,,,,,,,,,,0.39152953028678894,,,,,,
4319,8.0,,,,,,,,0.0,0.0,0.0,0.0,,5.019713285037142e-07,17.058042526245117,2.0381035804748535,5.383252143859863,9.636686325073242,0.7108619809150696
4320,,,5.024940605835582e-07,,,,,,,,,,,,,,,,
4349,9.0,,,,,,,,,,,,0.3680564761161804,,,,,,
4399,9.0,,,,,,,,,,,,0.30781328678131104,,,,,,
4449,9.0,,,,,,,,,,,,0.2555689215660095,,,,,,
4499,9.0,,,,,,,,,,,,0.2040276825428009,,,,,,
4549,9.0,,,,,,,,,,,,0.36037012934684753,,,,,,
4599,9.0,,,,,,,,,,,,0.46062004566192627,,,,,,
4649,9.0,,,,,,,,,,,,0.2394881248474121,,,,,,
4699,9.0,,,,,,,,,,,,0.4429493248462677,,,,,,
4749,9.0,,,,,,,,,,,,0.30047672986984253,,,,,,
4799,9.0,,,,,,,,0.0,0.0,0.0,0.0,0.5518386363983154,5.024940605835582e-07,16.858661651611328,2.1488702297210693,5.250332355499268,9.45945930480957,0.7106337547302246
4800,,,5.030778993386775e-07,,,,,,,,,,,,,,,,
4849,10.0,,,,,,,,,,,,0.26650381088256836,,,,,,
4899,10.0,,,,,,,,,,,,0.35891643166542053,,,,,,
4949,10.0,,,,,,,,,,,,0.32839441299438477,,,,,,
4999,10.0,,,,,,,,,,,,0.31701478362083435,,,,,,
5049,10.0,,,,,,,,,,,,0.43586909770965576,,,,,,
5099,10.0,,,,,,,,,,,,0.4446779489517212,,,,,,
5149,10.0,,,,,,,,,,,,0.43646079301834106,,,,,,
5199,10.0,,,,,,,,,,,,0.314594566822052,,,,,,
5249,10.0,,,,,,,,,,,,0.4757708013057709,,,,,,
5279,10.0,,,,,,,,0.0,0.0,0.0,0.0,,5.030778993386775e-07,16.814355850219727,2.1488702297210693,5.272485733032227,9.392999649047852,0.7174215912818909
5280,,,5.037226742388157e-07,,,,,,,,,,,,,,,,
5299,11.0,,,,,,,,,,,,0.20240285992622375,,,,,,
5349,11.0,,,,,,,,,,,,0.3414517045021057,,,,,,
5399,11.0,,,,,,,,,,,,0.28874671459198,,,,,,
5449,11.0,,,,,,,,,,,,0.3509126305580139,,,,,,
5499,11.0,,,,,,,,,,,,0.2310459017753601,,,,,,
5549,11.0,,,,,,,,,,,,0.4722394645214081,,,,,,
5599,11.0,,,,,,,,,,,,0.38512104749679565,,,,,,
5649,11.0,,,,,,,,,,,,0.2598609924316406,,,,,,
5699,11.0,,,,,,,,,,,,0.23635753989219666,,,,,,
5749,11.0,,,,,,,,,,,,0.40500345826148987,,,,,,
5759,11.0,,,,,,,,0.0,0.0,0.0,0.0,,5.037226742388157e-07,16.459901809692383,1.860877275466919,5.20602560043335,9.392999649047852,0.7098754048347473
5760,,,5.04428214753716e-07,,,,,,,,,,,,,,,,
5799,12.0,,,,,,,,,,,,0.28054744005203247,,,,,,
5849,12.0,,,,,,,,,,,,0.32595980167388916,,,,,,
5899,12.0,,,,,,,,,,,,0.2848394513130188,,,,,,
5949,12.0,,,,,,,,,,,,0.35803699493408203,,,,,,
5999,12.0,,,,,,,,,,,,0.2923654019832611,,,,,,
6049,12.0,,,,,,,,,,,,0.2517837584018707,,,,,,
6099,12.0,,,,,,,,,,,,0.2685192823410034,,,,,,
6149,12.0,,,,,,,,,,,,0.3040398955345154,,,,,,
6199,12.0,,,,,,,,,,,,0.2122110277414322,,,,,,
6239,12.0,,,,,,,,0.0,0.0,0.0,0.0,,5.04428214753716e-07,16.858661651611328,2.0381035804748535,5.316792011260986,9.503766059875488,0.7093257904052734
6240,,,5.051942935097031e-07,,,,,,,,,,,,,,,,
6249,13.0,,,,,,,,,,,,0.5683474540710449,,,,,,
6299,13.0,,,,,,,,,,,,0.4373321235179901,,,,,,
6349,13.0,,,,,,,,,,,,0.2731603980064392,,,,,,
6399,13.0,,,,,,,,,,,,0.3089497983455658,,,,,,
6449,13.0,,,,,,,,,,,,0.25518015027046204,,,,,,
6499,13.0,,,,,,,,,,,,0.48387986421585083,,,,,,
6549,13.0,,,,,,,,,,,,0.32490164041519165,,,,,,
6599,13.0,,,,,,,,,,,,0.3941271901130676,,,,,,
6649,13.0,,,,,,,,,,,,0.3753315806388855,,,,,,
6699,13.0,,,,,,,,,,,,0.27526557445526123,,,,,,
6719,13.0,,,,,,,,0.0,0.0,0.0,0.0,,5.051942935097031e-07,16.681434631347656,1.8165706396102905,5.20602560043335,9.658839225769043,0.7063930034637451
6720,,,5.060207968199393e-07,,,,,,,,,,,,,,,,
6749,14.0,,,,,,,,,,,,0.24762055277824402,,,,,,
6799,14.0,,,,,,,,,,,,0.39470040798187256,,,,,,
6849,14.0,,,,,,,,,,,,0.2856181263923645,,,,,,
6899,14.0,,,,,,,,,,,,0.3013017773628235,,,,,,
6949,14.0,,,,,,,,,,,,0.44322896003723145,,,,,,
6999,14.0,,,,,,,,,,,,0.39471280574798584,,,,,,
7049,14.0,,,,,,,,,,,,0.401561975479126,,,,,,
7099,14.0,,,,,,,,,,,,0.30066606402397156,,,,,,
7149,14.0,,,,,,,,,,,,0.2888084650039673,,,,,,
7199,14.0,,,,,,,,0.0,0.0,0.0,0.0,0.4287206530570984,5.060207968199393e-07,17.124502182006836,2.0381035804748535,5.338945388793945,9.747452735900879,0.7267860174179077
7200,,,5.06907497310749e-07,,,,,,,,,,,,,,,,
7249,15.0,,,,,,,,,,,,0.21002644300460815,,,,,,
7299,15.0,,,,,,,,,,,,0.38629966974258423,,,,,,
7349,15.0,,,,,,,,,,,,0.3590151071548462,,,,,,
7399,15.0,,,,,,,,,,,,0.2923170328140259,,,,,,
7449,15.0,,,,,,,,,,,,0.4191444516181946,,,,,,
7499,15.0,,,,,,,,,,,,0.3371475040912628,,,,,,
7549,15.0,,,,,,,,,,,,0.25899404287338257,,,,,,
7599,15.0,,,,,,,,,,,,0.2819097638130188,,,,,,
7649,15.0,,,,,,,,,,,,0.39344659447669983,,,,,,
7679,15.0,,,,,,,,0.0,0.0,0.0,0.0,,5.06907497310749e-07,17.190961837768555,2.1045634746551514,5.671245098114014,9.415152549743652,0.7206040024757385
7680,,,5.078542244518758e-07,,,,,,,,,,,,,,,,
7699,16.0,,,,,,,,,,,,0.202688530087471,,,,,,
7749,16.0,,,,,,,,,,,,0.38187575340270996,,,,,,
7799,16.0,,,,,,,,,,,,0.3102066218852997,,,,,,
7849,16.0,,,,,,,,,,,,0.31013500690460205,,,,,,
7899,16.0,,,,,,,,,,,,0.3641863465309143,,,,,,
7949,16.0,,,,,,,,,,,,0.318990558385849,,,,,,
7999,16.0,,,,,,,,,,,,0.3933885097503662,,,,,,
8049,16.0,,,,,,,,,,,,0.488905131816864,,,,,,
8099,16.0,,,,,,,,,,,,0.3400803804397583,,,,,,
8149,16.0,,,,,,,,,,,,0.37680578231811523,,,,,,
8159,16.0,,,,,,,,0.0,0.0,0.0,0.0,,5.078542244518758e-07,17.0801944732666,1.9273371696472168,5.4940185546875,9.658839225769043,0.7173788547515869
8160,,,5.088606371828064e-07,,,,,,,,,,,,,,,,
8199,17.0,,,,,,,,,,,,0.27286258339881897,,,,,,
8249,17.0,,,,,,,,,,,,0.31809136271476746,,,,,,
8299,17.0,,,,,,,,,,,,0.38550645112991333,,,,,,
8349,17.0,,,,,,,,,,,,0.32027527689933777,,,,,,
8399,17.0,,,,,,,,,,,,0.2807542085647583,,,,,,
8449,17.0,,,,,,,,,,,,0.25995132327079773,,,,,,
8499,17.0,,,,,,,,,,,,0.3050782084465027,,,,,,
8549,17.0,,,,,,,,,,,,0.36636146903038025,,,,,,
8599,17.0,,,,,,,,,,,,0.40145939588546753,,,,,,
8639,17.0,,,,,,,,0.0,0.0,0.0,0.0,,5.088606371828064e-07,16.880815505981445,1.8387240171432495,5.449711799621582,9.592379570007324,0.7242052555084229
8640,,,5.099265649732843e-07,,,,,,,,,,,,,,,,
8649,18.0,,,,,,,,,,,,0.333635151386261,,,,,,
8699,18.0,,,,,,,,,,,,0.24420291185379028,,,,,,
8749,18.0,,,,,,,,,,,,0.41987448930740356,,,,,,
8799,18.0,,,,,,,,,,,,0.3823241591453552,,,,,,
8849,18.0,,,,,,,,,,,,0.31974542140960693,,,,,,
8899,18.0,,,,,,,,,,,,0.4046449065208435,,,,,,
8949,18.0,,,,,,,,,,,,0.35983026027679443,,,,,,
8999,18.0,,,,,,,,,,,,0.3000118136405945,,,,,,
9049,18.0,,,,,,,,,,,,0.29409119486808777,,,,,,
9099,18.0,,,,,,,,,,,,0.2809564471244812,,,,,,
9119,18.0,,,,,,,,0.0,0.0,0.0,0.0,,5.099265649732843e-07,17.434648513793945,2.0381035804748535,5.626938343048096,9.76960563659668,0.7280566096305847
9120,,,5.110517236062151e-07,,,,,,,,,,,,,,,,
9149,19.0,,,,,,,,,,,,0.32075434923171997,,,,,,
9199,19.0,,,,,,,,,,,,0.2752006947994232,,,,,,
9249,19.0,,,,,,,,,,,,0.4588302969932556,,,,,,
9299,19.0,,,,,,,,,,,,0.20983096957206726,,,,,,
9349,19.0,,,,,,,,,,,,0.3431108593940735,,,,,,
9399,19.0,,,,,,,,,,,,0.4624049961566925,,,,,,
9449,19.0,,,,,,,,,,,,0.4530837833881378,,,,,,
9499,19.0,,,,,,,,,,,,0.3255165219306946,,,,,,
9549,19.0,,,,,,,,,,,,0.38585415482521057,,,,,,
9599,19.0,,,,,,,,0.0,0.0,0.0,0.0,0.15749430656433105,5.110517236062151e-07,16.814355850219727,1.9494904279708862,5.16171932220459,9.703145980834961,0.7212737798690796
9600,,,5.122358857079234e-07,,,,,,,,,,,,,,,,
9649,20.0,,,,,,,,,,,,0.42326152324676514,,,,,,
9699,20.0,,,,,,,,,,,,0.2523159384727478,,,,,,
9749,20.0,,,,,,,,,,,,0.4612448215484619,,,,,,
9799,20.0,,,,,,,,,,,,0.2694944441318512,,,,,,
9849,20.0,,,,,,,,,,,,0.36762452125549316,,,,,,
9899,20.0,,,,,,,,,,,,0.48124897480010986,,,,,,
9949,20.0,,,,,,,,,,,,0.384067565202713,,,,,,
9999,20.0,,,,,,,,,,,,0.46630120277404785,,,,,,
10049,20.0,,,,,,,,,,,,0.29183369874954224,,,,,,
10079,20.0,,,,,,,,0.0,0.0,0.0,0.0,,5.122358857079234e-07,16.880815505981445,1.9273371696472168,5.20602560043335,9.747452735900879,0.7136627435684204
10080,,,5.134786533744773e-07,,,,,,,,,,,,,,,,
10099,21.0,,,,,,,,,,,,0.36438655853271484,,,,,,
10149,21.0,,,,,,,,,,,,0.2771061658859253,,,,,,
10199,21.0,,,,,,,,,,,,0.3222297430038452,,,,,,
10249,21.0,,,,,,,,,,,,0.33966749906539917,,,,,,
10299,21.0,,,,,,,,,,,,0.32882875204086304,,,,,,
10349,21.0,,,,,,,,,,,,0.3761277198791504,,,,,,
10399,21.0,,,,,,,,,,,,0.40433019399642944,,,,,,
10449,21.0,,,,,,,,,,,,0.29501819610595703,,,,,,
10499,21.0,,,,,,,,,,,,0.29040804505348206,,,,,,
10549,21.0,,,,,,,,,,,,0.5089840888977051,,,,,,
10559,21.0,,,,,,,,0.0,0.0,0.0,0.0,,5.134786533744773e-07,16.703588485717773,1.9494904279708862,5.250332355499268,9.503766059875488,0.7131577730178833
10560,,,5.147797992322012e-07,,,,,,,,,,,,,,,,
10599,22.0,,,,,,,,,,,,0.19724908471107483,,,,,,
10649,22.0,,,,,,,,,,,,0.29971814155578613,,,,,,
10699,22.0,,,,,,,,,,,,0.24154551327228546,,,,,,
10749,22.0,,,,,,,,,,,,0.20067867636680603,,,,,,
10799,22.0,,,,,,,,,,,,0.33189716935157776,,,,,,
10849,22.0,,,,,,,,,,,,0.4124623239040375,,,,,,
10899,22.0,,,,,,,,,,,,0.26974770426750183,,,,,,
10949,22.0,,,,,,,,,,,,0.3582989275455475,,,,,,
10999,22.0,,,,,,,,,,,,0.4266660511493683,,,,,,
11039,22.0,,,,,,,,0.0,0.0,0.0,0.0,,5.147797992322012e-07,16.703588485717773,1.860877275466919,4.984492778778076,9.858219146728516,0.7125853300094604
11040,,,5.16138982220582e-07,,,,,,,,,,,,,,,,
11049,23.0,,,,,,,,,,,,0.22023068368434906,,,,,,
11099,23.0,,,,,,,,,,,,0.5515429973602295,,,,,,
11149,23.0,,,,,,,,,,,,0.2726852297782898,,,,,,
11199,23.0,,,,,,,,,,,,0.38335150480270386,,,,,,
11249,23.0,,,,,,,,,,,,0.3712933659553528,,,,,,
11299,23.0,,,,,,,,,,,,0.2998560667037964,,,,,,
11349,23.0,,,,,,,,,,,,0.23578360676765442,,,,,,
11399,23.0,,,,,,,,,,,,0.24866122007369995,,,,,,
11449,23.0,,,,,,,,,,,,0.19367176294326782,,,,,,
11499,23.0,,,,,,,,,,,,0.4278338849544525,,,,,,
11519,23.0,,,,,,,,0.0,0.0,0.0,0.0,,5.16138982220582e-07,16.681434631347656,1.9494904279708862,5.250332355499268,9.481613159179688,0.7153066992759705
11520,,,5.175558612791065e-07,,,,,,,,,,,,,,,,
11549,24.0,,,,,,,,,,,,0.46741098165512085,,,,,,
11599,24.0,,,,,,,,,,,,0.3569149076938629,,,,,,
11649,24.0,,,,,,,,,,,,0.20608577132225037,,,,,,
11699,24.0,,,,,,,,,,,,0.2350108027458191,,,,,,
11749,24.0,,,,,,,,,,,,0.3375518321990967,,,,,,
11799,24.0,,,,,,,,,,,,0.34861940145492554,,,,,,
11849,24.0,,,,,,,,,,,,0.3954315781593323,,,,,,
11899,24.0,,,,,,,,,,,,0.21975845098495483,,,,,,
11949,24.0,,,,,,,,,,,,0.4051239788532257,,,,,,
11999,24.0,,,,,,,,0.0,0.0,0.0,0.0,0.2974172532558441,5.175558612791065e-07,16.902969360351562,1.9716438055038452,5.16171932220459,9.76960563659668,0.7139703631401062
12000,,,5.190300953472615e-07,,,,,,,,,,,,,,,,
12049,25.0,,,,,,,,,,,,0.42210838198661804,,,,,,
12099,25.0,,,,,,,,,,,,0.2795608937740326,,,,,,
12149,25.0,,,,,,,,,,,,0.26865872740745544,,,,,,
12199,25.0,,,,,,,,,,,,0.29285645484924316,,,,,,
12249,25.0,,,,,,,,,,,,0.5357248187065125,,,,,,
12299,25.0,,,,,,,,,,,,0.21227294206619263,,,,,,
12349,25.0,,,,,,,,,,,,0.37645289301872253,,,,,,
12399,25.0,,,,,,,,,,,,0.3765054941177368,,,,,,
12449,25.0,,,,,,,,,,,,0.22579941153526306,,,,,,
12479,25.0,,,,,,,,0.0,0.0,0.0,0.0,,5.190300953472615e-07,16.814355850219727,2.237483501434326,4.89587926864624,9.680992126464844,0.7091745138168335
12480,,,5.20561343364534e-07,,,,,,,,,,,,,,,,
12499,26.0,,,,,,,,,,,,0.37102335691452026,,,,,,
12549,26.0,,,,,,,,,,,,0.481778085231781,,,,,,
12599,26.0,,,,,,,,,,,,0.5014504194259644,,,,,,
12649,26.0,,,,,,,,,,,,0.24890930950641632,,,,,,
12699,26.0,,,,,,,,,,,,0.35835886001586914,,,,,,
12749,26.0,,,,,,,,,,,,0.24870416522026062,,,,,,
12799,26.0,,,,,,,,,,,,0.3497692346572876,,,,,,
12849,26.0,,,,,,,,,,,,0.4014849066734314,,,,,,
12899,26.0,,,,,,,,,,,,0.36965590715408325,,,,,,
12949,26.0,,,,,,,,,,,,0.5154800415039062,,,,,,
12959,26.0,,,,,,,,0.0,0.0,0.0,0.0,,5.20561343364534e-07,16.659282684326172,2.0381035804748535,4.918032646179199,9.703145980834961,0.7104045748710632
12960,,,5.221492074269918e-07,,,,,,,,,,,,,,,,
12999,27.0,,,,,,,,,,,,0.29774439334869385,,,,,,
13049,27.0,,,,,,,,,,,,0.25597238540649414,,,,,,
13099,27.0,,,,,,,,,,,,0.28703516721725464,,,,,,
13149,27.0,,,,,,,,,,,,0.2810570001602173,,,,,,
13199,27.0,,,,,,,,,,,,0.2859656810760498,,,,,,
13249,27.0,,,,,,,,,,,,0.3263838589191437,,,,,,
13299,27.0,,,,,,,,,,,,0.25614821910858154,,,,,,
13349,27.0,,,,,,,,,,,,0.2516006827354431,,,,,,
13399,27.0,,,,,,,,,,,,0.33396968245506287,,,,,,
13439,27.0,,,,,,,,0.0,0.0,0.0,0.0,,5.221492074269918e-07,16.614974975585938,2.0159504413604736,5.028799057006836,9.570225715637207,0.7074548006057739
13440,,,5.237932327872841e-07,,,,,,,,,,,,,,,,
13449,28.0,,,,,,,,,,,,0.3170604109764099,,,,,,
13499,28.0,,,,,,,,,,,,0.3037918508052826,,,,,,
13549,28.0,,,,,,,,,,,,0.3468169569969177,,,,,,
13599,28.0,,,,,,,,,,,,0.26882505416870117,,,,,,
13649,28.0,,,,,,,,,,,,0.2894313931465149,,,,,,
13699,28.0,,,,,,,,,,,,0.3202294111251831,,,,,,
13749,28.0,,,,,,,,,,,,0.24850419163703918,,,,,,
13799,28.0,,,,,,,,,,,,0.46175098419189453,,,,,,
13849,28.0,,,,,,,,,,,,0.29772838950157166,,,,,,
13899,28.0,,,,,,,,,,,,0.29166314005851746,,,,,,
13919,28.0,,,,,,,,0.0,0.0,0.0,0.0,,5.237932327872841e-07,17.10234832763672,2.1267168521881104,5.2946391105651855,9.680992126464844,0.7152926325798035
13920,,,5.254930783848977e-07,,,,,,,,,,,,,,,,
13949,29.0,,,,,,,,,,,,0.31915968656539917,,,,,,
13999,29.0,,,,,,,,,,,,0.26648128032684326,,,,,,
14049,29.0,,,,,,,,,,,,0.5000145435333252,,,,,,
14099,29.0,,,,,,,,,,,,0.28875932097435,,,,,,
14149,29.0,,,,,,,,,,,,0.3187881112098694,,,,,,
14199,29.0,,,,,,,,,,,,0.29660943150520325,,,,,,
14249,29.0,,,,,,,,,,,,0.3611375689506531,,,,,,
14299,29.0,,,,,,,,,,,,0.27953463792800903,,,,,,
14349,29.0,,,,,,,,,,,,0.30568817257881165,,,,,,
14399,29.0,,,,,,,,0.0,0.0,0.0,0.0,0.41524824500083923,5.254930783848977e-07,16.991580963134766,2.0159504413604736,5.2946391105651855,9.680992126464844,0.7147196531295776
14400,,,5.272483463159006e-07,,,,,,,,,,,,,,,,
14449,30.0,,,,,,,,,,,,0.21016116440296173,,,,,,
14499,30.0,,,,,,,,,,,,0.41647931933403015,,,,,,
14549,30.0,,,,,,,,,,,,0.23639261722564697,,,,,,
14599,30.0,,,,,,,,,,,,0.27136752009391785,,,,,,
14649,30.0,,,,,,,,,,,,0.3607993721961975,,,,,,
14699,30.0,,,,,,,,,,,,0.3123003840446472,,,,,,
14749,30.0,,,,,,,,,,,,0.2352253496646881,,,,,,
14799,30.0,,,,,,,,,,,,0.43025681376457214,,,,,,
14849,30.0,,,,,,,,,,,,0.42148733139038086,,,,,,
14879,30.0,,,,,,,,0.0,0.0,0.0,0.0,,5.272483463159006e-07,16.858661651611328,2.0159504413604736,4.962339401245117,9.880372047424316,0.7191259264945984
14880,,,5.290585818329419e-07,,,,,,,,,,,,,,,,
14899,31.0,,,,,,,,,,,,0.22698190808296204,,,,,,
14949,31.0,,,,,,,,,,,,0.4000609815120697,,,,,,
14999,31.0,,,,,,,,,,,,0.4930463135242462,,,,,,
15049,31.0,,,,,,,,,,,,0.28830933570861816,,,,,,
15099,31.0,,,,,,,,,,,,0.3258358836174011,,,,,,
15149,31.0,,,,,,,,,,,,0.2603141963481903,,,,,,
15199,31.0,,,,,,,,,,,,0.2642000615596771,,,,,,
15249,31.0,,,,,,,,,,,,0.25835686922073364,,,,,,
15299,31.0,,,,,,,,,,,,0.2620192766189575,,,,,,
15349,31.0,,,,,,,,,,,,0.4118598699569702,,,,,,
15359,31.0,,,,,,,,0.0,0.0,0.0,0.0,,5.290585818329419e-07,17.013734817504883,2.237483501434326,5.183872222900391,9.592379570007324,0.7119832038879395
15360,,,5.309233301886707e-07,,,,,,,,,,,,,,,,
15399,32.0,,,,,,,,,,,,0.45890969038009644,,,,,,
15449,32.0,,,,,,,,,,,,0.2527121305465698,,,,,,
15499,32.0,,,,,,,,,,,,0.34081602096557617,,,,,,
15549,32.0,,,,,,,,,,,,0.40729907155036926,,,,,,
15599,32.0,,,,,,,,,,,,0.34132784605026245,,,,,,
15649,32.0,,,,,,,,,,,,0.22967004776000977,,,,,,
15699,32.0,,,,,,,,,,,,0.326501727104187,,,,,,
15749,32.0,,,,,,,,,,,,0.3863072693347931,,,,,,
15799,32.0,,,,,,,,,,,,0.3072616457939148,,,,,,
15839,32.0,,,,,,,,0.0,0.0,0.0,0.0,,5.309233301886707e-07,16.902969360351562,2.1045634746551514,5.272485733032227,9.525918960571289,0.7207359671592712
15840,,,5.328421366357361e-07,,,,,,,,,,,,,,,,
15849,33.0,,,,,,,,,,,,0.5663073062896729,,,,,,
15899,33.0,,,,,,,,,,,,0.28596436977386475,,,,,,
15949,33.0,,,,,,,,,,,,0.4675721526145935,,,,,,
15999,33.0,,,,,,,,,,,,0.33945173025131226,,,,,,
16049,33.0,,,,,,,,,,,,0.3419463336467743,,,,,,
16099,33.0,,,,,,,,,,,,0.3814600110054016,,,,,,
16149,33.0,,,,,,,,,,,,0.3056057393550873,,,,,,
16199,33.0,,,,,,,,,,,,0.36385947465896606,,,,,,
16249,33.0,,,,,,,,,,,,0.35390323400497437,,,,,,
16299,33.0,,,,,,,,,,,,0.2076941579580307,,,,,,
16319,33.0,,,,,,,,0.0,0.0,0.0,0.0,,5.328421366357361e-07,16.814355850219727,2.193176746368408,5.050952434539795,9.570225715637207,0.7206244468688965
16320,,,5.348144895833684e-07,,,,,,,,,,,,,,,,
16349,34.0,,,,,,,,,,,,0.3365321457386017,,,,,,
16399,34.0,,,,,,,,,,,,0.2599724531173706,,,,,,
16449,34.0,,,,,,,,,,,,0.2341979295015335,,,,,,
16499,34.0,,,,,,,,,,,,0.2924865484237671,,,,,,
16549,34.0,,,,,,,,,,,,0.274274617433548,,,,,,
16599,34.0,,,,,,,,,,,,0.44723185896873474,,,,,,
16649,34.0,,,,,,,,,,,,0.44183823466300964,,,,,,
16699,34.0,,,,,,,,,,,,0.39329463243484497,,,,,,
16749,34.0,,,,,,,,,,,,0.3383364975452423,,,,,,
16799,34.0,,,,,,,,0.0,0.0,0.0,0.0,0.48791706562042236,5.348144895833684e-07,16.770048141479492,2.0159504413604736,5.139565944671631,9.614532470703125,0.7112408876419067
16800,,,5.368399342842167e-07,,,,,,,,,,,,,,,,
16849,35.0,,,,,,,,,,,,0.20395192503929138,,,,,,
16899,35.0,,,,,,,,,,,,0.25806549191474915,,,,,,
16949,35.0,,,,,,,,,,,,0.27593228220939636,,,,,,
16999,35.0,,,,,,,,,,,,0.4395521283149719,,,,,,
17049,35.0,,,,,,,,,,,,0.3699497878551483,,,,,,
17099,35.0,,,,,,,,,,,,0.2930850386619568,,,,,,
17149,35.0,,,,,,,,,,,,0.5610283613204956,,,,,,
17199,35.0,,,,,,,,,,,,0.3102402091026306,,,,,,
17249,35.0,,,,,,,,,,,,0.22764742374420166,,,,,,
17279,35.0,,,,,,,,0.0,0.0,0.0,0.0,,5.368399342842167e-07,17.168807983398438,2.0602569580078125,5.560478687286377,9.548072814941406,0.7248439192771912
17280,,,5.389180159909301e-07,,,,,,,,,,,,,,,,
17299,36.0,,,,,,,,,,,,0.35263535380363464,,,,,,
17349,36.0,,,,,,,,,,,,0.3660048842430115,,,,,,
17399,36.0,,,,,,,,,,,,0.41943055391311646,,,,,,
17449,36.0,,,,,,,,,,,,0.4336889982223511,,,,,,
17499,36.0,,,,,,,,,,,,0.2416245937347412,,,,,,
17549,36.0,,,,,,,,,,,,0.21998628973960876,,,,,,
17599,36.0,,,,,,,,,,,,0.29999449849128723,,,,,,
17649,36.0,,,,,,,,,,,,0.40879833698272705,,,,,,
17699,36.0,,,,,,,,,,,,0.3930227756500244,,,,,,
17749,36.0,,,,,,,,,,,,0.30214667320251465,,,,,,
17759,36.0,,,,,,,,0.0,0.0,0.0,0.0,,5.389180159909301e-07,17.013734817504883,2.1267168521881104,5.316792011260986,9.570225715637207,0.7173715233802795
17760,,,5.410481662693201e-07,,,,,,,,,,,,,,,,
17799,37.0,,,,,,,,,,,,0.2774166166782379,,,,,,
17849,37.0,,,,,,,,,,,,0.39286112785339355,,,,,,
17899,37.0,,,,,,,,,,,,0.46747887134552,,,,,,
17949,37.0,,,,,,,,,,,,0.3740595281124115,,,,,,
17999,37.0,,,,,,,,,,,,0.30735307931900024,,,,,,
18049,37.0,,,,,,,,,,,,0.33922919631004333,,,,,,
18099,37.0,,,,,,,,,,,,0.34859976172447205,,,,,,
18149,37.0,,,,,,,,,,,,0.24574336409568787,,,,,,
18199,37.0,,,,,,,,,,,,0.29314789175987244,,,,,,
18239,37.0,,,,,,,,0.0,0.0,0.0,0.0,,5.410481662693201e-07,16.83650779724121,2.0381035804748535,5.050952434539795,9.747452735900879,0.7109574675559998
18240,,,5.432298735286167e-07,,,,,,,,,,,,,,,,
18249,38.0,,,,,,,,,,,,0.2381012737751007,,,,,,
18299,38.0,,,,,,,,,,,,0.26068025827407837,,,,,,
18349,38.0,,,,,,,,,,,,0.4301949739456177,,,,,,
18399,38.0,,,,,,,,,,,,0.3272424340248108,,,,,,
18449,38.0,,,,,,,,,,,,0.46086734533309937,,,,,,
18499,38.0,,,,,,,,,,,,0.37442120909690857,,,,,,
18549,38.0,,,,,,,,,,,,0.3352507948875427,,,,,,
18599,38.0,,,,,,,,,,,,0.17946889996528625,,,,,,
18649,38.0,,,,,,,,,,,,0.3419871926307678,,,,,,
18699,38.0,,,,,,,,,,,,0.28669315576553345,,,,,,
18719,38.0,,,,,,,,0.0,0.0,0.0,0.0,,5.432298735286167e-07,16.83650779724121,2.0159504413604736,5.272485733032227,9.548072814941406,0.7139394879341125
18720,,,5.454625693346316e-07,,,,,,,,,,,,,,,,
18749,39.0,,,,,,,,,,,,0.28760281205177307,,,,,,
18799,39.0,,,,,,,,,,,,0.3629031479358673,,,,,,
18849,39.0,,,,,,,,,,,,0.22558853030204773,,,,,,
18899,39.0,,,,,,,,,,,,0.2117091566324234,,,,,,
18949,39.0,,,,,,,,,,,,0.2870507538318634,,,,,,
18999,39.0,,,,,,,,,,,,0.25106289982795715,,,,,,
19049,39.0,,,,,,,,,,,,0.32230016589164734,,,,,,
19099,39.0,,,,,,,,,,,,0.33149904012680054,,,,,,
19149,39.0,,,,,,,,,,,,0.3521227240562439,,,,,,
19199,39.0,,,,,,,,0.0,0.0,0.0,0.0,0.4699624180793762,5.454625693346316e-07,16.991580963134766,2.0824103355407715,5.006646156311035,9.902525901794434,0.725237250328064
19200,,,5.477457420965948e-07,,,,,,,,,,,,,,,,
19249,40.0,,,,,,,,,,,,0.31497064232826233,,,,,,
19299,40.0,,,,,,,,,,,,0.3368983566761017,,,,,,
19349,40.0,,,,,,,,,,,,0.19043442606925964,,,,,,
19399,40.0,,,,,,,,,,,,0.4137426018714905,,,,,,
19449,40.0,,,,,,,,,,,,0.27921509742736816,,,,,,
19499,40.0,,,,,,,,,,,,0.38919246196746826,,,,,,
19549,40.0,,,,,,,,,,,,0.43442267179489136,,,,,,
19599,40.0,,,,,,,,,,,,0.23830431699752808,,,,,,
19649,40.0,,,,,,,,,,,,0.1918363869190216,,,,,,
19679,40.0,,,,,,,,0.0,0.0,0.0,0.0,,5.477457420965948e-07,16.72574234008789,1.9937970638275146,5.006646156311035,9.725298881530762,0.719760000705719
19680,,,5.500788233803178e-07,,,,,,,,,,,,,,,,
19699,41.0,,,,,,,,,,,,0.2757149934768677,,,,,,
19749,41.0,,,,,,,,,,,,0.3685186207294464,,,,,,
19799,41.0,,,,,,,,,,,,0.3441966772079468,,,,,,
19849,41.0,,,,,,,,,,,,0.37006139755249023,,,,,,
19899,41.0,,,,,,,,,,,,0.2985275387763977,,,,,,
19949,41.0,,,,,,,,,,,,0.5551651120185852,,,,,,
19999,41.0,,,,,,,,,,,,0.27312225103378296,,,,,,
20049,41.0,,,,,,,,,,,,0.3976510763168335,,,,,,
20099,41.0,,,,,,,,,,,,0.3009316623210907,,,,,,
20149,41.0,,,,,,,,,,,,0.35259830951690674,,,,,,
20159,41.0,,,,,,,,0.0,0.0,0.0,0.0,,5.500788233803178e-07,17.0801944732666,2.193176746368408,5.006646156311035,9.880372047424316,0.7194659113883972
20160,,,5.52461244751612e-07,,,,,,,,,,,,,,,,
20199,42.0,,,,,,,,,,,,0.28564608097076416,,,,,,
20249,42.0,,,,,,,,,,,,0.2606872320175171,,,,,,
20299,42.0,,,,,,,,,,,,0.39108583331108093,,,,,,
20349,42.0,,,,,,,,,,,,0.3824104368686676,,,,,,
20399,42.0,,,,,,,,,,,,0.5423426628112793,,,,,,
20449,42.0,,,,,,,,,,,,0.25056132674217224,,,,,,
20499,42.0,,,,,,,,,,,,0.39342445135116577,,,,,,
20549,42.0,,,,,,,,,,,,0.34673577547073364,,,,,,
20599,42.0,,,,,,,,,,,,0.30330950021743774,,,,,,
20639,42.0,,,,,,,,0.0,0.0,0.0,0.0,,5.52461244751612e-07,16.902969360351562,2.0602569580078125,5.20602560043335,9.636686325073242,0.7060724496841431
20640,,,5.548923809328699e-07,,,,,,,,,,,,,,,,
20649,43.0,,,,,,,,,,,,0.3388599157333374,,,,,,
20699,43.0,,,,,,,,,,,,0.2675277292728424,,,,,,
20749,43.0,,,,,,,,,,,,0.3444279730319977,,,,,,
20799,43.0,,,,,,,,,,,,0.4048411250114441,,,,,,
20849,43.0,,,,,,,,,,,,0.26675593852996826,,,,,,
20899,43.0,,,,,,,,,,,,0.28529417514801025,,,,,,
20949,43.0,,,,,,,,,,,,0.4426077604293823,,,,,,
20999,43.0,,,,,,,,,,,,0.235861137509346,,,,,,
21049,43.0,,,,,,,,,,,,0.5514398813247681,,,,,,
21099,43.0,,,,,,,,,,,,0.256933331489563,,,,,,
21119,43.0,,,,,,,,0.0,0.0,0.0,0.0,,5.548923809328699e-07,16.947275161743164,1.9937970638275146,5.250332355499268,9.703145980834961,0.7172902226448059
21120,,,5.573716634899029e-07,,,,,,,,,,,,,,,,
21149,44.0,,,,,,,,,,,,0.2927027642726898,,,,,,
21199,44.0,,,,,,,,,,,,0.16192927956581116,,,,,,
21249,44.0,,,,,,,,,,,,0.22407522797584534,,,,,,
21299,44.0,,,,,,,,,,,,0.277363657951355,,,,,,
21349,44.0,,,,,,,,,,,,0.42009520530700684,,,,,,
21399,44.0,,,,,,,,,,,,0.39944496750831604,,,,,,
21449,44.0,,,,,,,,,,,,0.2814877927303314,,,,,,
21499,44.0,,,,,,,,,,,,0.38663023710250854,,,,,,
21549,44.0,,,,,,,,,,,,0.2285342961549759,,,,,,
21599,44.0,,,,,,,,0.0,0.0,0.0,0.0,0.2732436954975128,5.573716634899029e-07,17.013734817504883,2.0159504413604736,5.250332355499268,9.747452735900879,0.7254039645195007
21600,,,5.598985239885224e-07,,,,,,,,,,,,,,,,
21649,45.0,,,,,,,,,,,,0.3757854104042053,,,,,,
21699,45.0,,,,,,,,,,,,0.2596752941608429,,,,,,
21749,45.0,,,,,,,,,,,,0.39091530442237854,,,,,,
21799,45.0,,,,,,,,,,,,0.17866352200508118,,,,,,
21849,45.0,,,,,,,,,,,,0.43736833333969116,,,,,,
21899,45.0,,,,,,,,,,,,0.33907952904701233,,,,,,
21949,45.0,,,,,,,,,,,,0.2650715112686157,,,,,,
21999,45.0,,,,,,,,,,,,0.48192140460014343,,,,,,
22049,45.0,,,,,,,,,,,,0.26157134771347046,,,,,,
22079,45.0,,,,,,,,0.0,0.0,0.0,0.0,,5.598985239885224e-07,17.10234832763672,1.9051839113235474,5.139565944671631,10.057598114013672,0.7360222935676575
22080,,,5.624722234642832e-07,,,,,,,,,,,,,,,,
22099,46.0,,,,,,,,,,,,0.40519991517066956,,,,,,
22149,46.0,,,,,,,,,,,,0.2515253722667694,,,,,,
22199,46.0,,,,,,,,,,,,0.23105424642562866,,,,,,
22249,46.0,,,,,,,,,,,,0.26216280460357666,,,,,,
22299,46.0,,,,,,,,,,,,0.29416605830192566,,,,,,
22349,46.0,,,,,,,,,,,,0.25376904010772705,,,,,,
22399,46.0,,,,,,,,,,,,0.4215296506881714,,,,,,
22449,46.0,,,,,,,,,,,,0.15927767753601074,,,,,,
22499,46.0,,,,,,,,,,,,0.2723729908466339,,,,,,
22549,46.0,,,,,,,,,,,,0.4178798496723175,,,,,,
22559,46.0,,,,,,,,0.0,0.0,0.0,0.0,,5.624722234642832e-07,16.659282684326172,2.281790018081665,4.7851128578186035,9.592379570007324,0.721308708190918
22560,,,5.650922503264155e-07,,,,,,,,,,,,,,,,
22599,47.0,,,,,,,,,,,,0.2491789609193802,,,,,,
22649,47.0,,,,,,,,,,,,0.3536122739315033,,,,,,
22699,47.0,,,,,,,,,,,,0.19687549769878387,,,,,,
22749,47.0,,,,,,,,,,,,0.30480438470840454,,,,,,
22799,47.0,,,,,,,,,,,,0.2156468629837036,,,,,,
22849,47.0,,,,,,,,,,,,0.2697222828865051,,,,,,
22899,47.0,,,,,,,,,,,,0.3345356583595276,,,,,,
22949,47.0,,,,,,,,,,,,0.41060128808021545,,,,,,
22999,47.0,,,,,,,,,,,,0.2539799213409424,,,,,,
23039,47.0,,,,,,,,0.0,0.0,0.0,0.0,,5.650922503264155e-07,16.991580963134766,2.1267168521881104,5.20602560043335,9.658839225769043,0.7260118722915649
23040,,,5.677578656104743e-07,,,,,,,,,,,,,,,,
23049,48.0,,,,,,,,,,,,0.2781514525413513,,,,,,
23099,48.0,,,,,,,,,,,,0.29657042026519775,,,,,,
23149,48.0,,,,,,,,,,,,0.31596827507019043,,,,,,
23199,48.0,,,,,,,,,,,,0.2769007682800293,,,,,,
23249,48.0,,,,,,,,,,,,0.27671363949775696,,,,,,
23299,48.0,,,,,,,,,,,,0.43765631318092346,,,,,,
23349,48.0,,,,,,,,,,,,0.3622762858867645,,,,,,
23399,48.0,,,,,,,,,,,,0.33408409357070923,,,,,,
23449,48.0,,,,,,,,,,,,0.30854272842407227,,,,,,
23499,48.0,,,,,,,,,,,,0.30912908911705017,,,,,,
23519,48.0,,,,,,,,0.0,0.0,0.0,0.0,,5.677578656104743e-07,16.504209518432617,2.0159504413604736,5.050952434539795,9.43730640411377,0.7201665639877319
23520,,,5.704684440388519e-07,,,,,,,,,,,,,,,,
23549,49.0,,,,,,,,,,,,0.38969144225120544,,,,,,
23599,49.0,,,,,,,,,,,,0.375870019197464,,,,,,
23649,49.0,,,,,,,,,,,,0.29965946078300476,,,,,,
23699,49.0,,,,,,,,,,,,0.3760108947753906,,,,,,
23749,49.0,,,,,,,,,,,,0.4501969814300537,,,,,,
23799,49.0,,,,,,,,,,,,0.2613503932952881,,,,,,
23849,49.0,,,,,,,,,,,,0.5103911757469177,,,,,,
23899,49.0,,,,,,,,,,,,0.24299970269203186,,,,,,
23949,49.0,,,,,,,,,,,,0.3560429811477661,,,,,,
23999,49.0,,,,,,,,0.0,0.0,0.0,0.0,0.6064469218254089,5.704684440388519e-07,16.858661651611328,1.9716438055038452,5.095259189605713,9.79175853729248,0.7199646234512329
24000,,,5.732233034905221e-07,,,,,,,,,,,,,,,,
24049,50.0,,,,,,,,,,,,0.25760436058044434,,,,,,
24099,50.0,,,,,,,,,,,,0.31317761540412903,,,,,,
24149,50.0,,,,,,,,,,,,0.3569016456604004,,,,,,
24199,50.0,,,,,,,,,,,,0.40401533246040344,,,,,,
24249,50.0,,,,,,,,,,,,0.40779930353164673,,,,,,
24299,50.0,,,,,,,,,,,,0.29536736011505127,,,,,,
24349,50.0,,,,,,,,,,,,0.3365696668624878,,,,,,
24399,50.0,,,,,,,,,,,,0.37443721294403076,,,,,,
24449,50.0,,,,,,,,,,,,0.5919860601425171,,,,,,
24479,50.0,,,,,,,,0.0,0.0,0.0,0.0,,5.732233034905221e-07,16.703588485717773,2.0824103355407715,5.073105812072754,9.548072814941406,0.7209463715553284
24480,,,5.760218186878774e-07,,,,,,,,,,,,,,,,
24499,51.0,,,,,,,,,,,,0.2508236765861511,,,,,,
24549,51.0,,,,,,,,,,,,0.4247463345527649,,,,,,
24599,51.0,,,,,,,,,,,,0.40806108713150024,,,,,,
24649,51.0,,,,,,,,,,,,0.38894134759902954,,,,,,
24699,51.0,,,,,,,,,,,,0.4363148808479309,,,,,,
24749,51.0,,,,,,,,,,,,0.41437655687332153,,,,,,
24799,51.0,,,,,,,,,,,,0.2636622190475464,,,,,,
24849,51.0,,,,,,,,,,,,0.3114546537399292,,,,,,
24899,51.0,,,,,,,,,,,,0.36083292961120605,,,,,,
24949,51.0,,,,,,,,,,,,0.5702621936798096,,,,,,
24959,51.0,,,,,,,,0.0,0.0,0.0,0.0,,5.760218186878774e-07,16.858661651611328,2.1267168521881104,5.006646156311035,9.725298881530762,0.7175483703613281
24960,,,5.788632506664726e-07,,,,,,,,,,,,,,,,
24999,52.0,,,,,,,,,,,,0.5133055448532104,,,,,,
25049,52.0,,,,,,,,,,,,0.29012417793273926,,,,,,
25099,52.0,,,,,,,,,,,,0.43185093998908997,,,,,,
25149,52.0,,,,,,,,,,,,0.4197433590888977,,,,,,
25199,52.0,,,,,,,,,,,,0.31387436389923096,,,,,,
25249,52.0,,,,,,,,,,,,0.22719837725162506,,,,,,
25299,52.0,,,,,,,,,,,,0.49946117401123047,,,,,,
25349,52.0,,,,,,,,,,,,0.47699403762817383,,,,,,
25399,52.0,,,,,,,,,,,,0.3155767321586609,,,,,,
25439,52.0,,,,,,,,0.0,0.0,0.0,0.0,,5.788632506664726e-07,16.570669174194336,2.0381035804748535,5.16171932220459,9.370845794677734,0.7111737728118896
25440,,,5.817468604618625e-07,,,,,,,,,,,,,,,,
25449,53.0,,,,,,,,,,,,0.44081684947013855,,,,,,
25499,53.0,,,,,,,,,,,,0.2788104712963104,,,,,,
25549,53.0,,,,,,,,,,,,0.26446670293807983,,,,,,
25599,53.0,,,,,,,,,,,,0.39271798729896545,,,,,,
25649,53.0,,,,,,,,,,,,0.552539587020874,,,,,,
25699,53.0,,,,,,,,,,,,0.34567129611968994,,,,,,
25749,53.0,,,,,,,,,,,,0.524655818939209,,,,,,
25799,53.0,,,,,,,,,,,,0.26999250054359436,,,,,,
25849,53.0,,,,,,,,,,,,0.29812073707580566,,,,,,
25899,53.0,,,,,,,,,,,,0.19699609279632568,,,,,,
25919,53.0,,,,,,,,0.0,0.0,0.0,0.0,,5.817468604618625e-07,16.925121307373047,2.0159504413604736,5.028799057006836,9.880372047424316,0.7231602072715759
25920,,,5.846720227964397e-07,,,,,,,,,,,,,,,,
25949,54.0,,,,,,,,,,,,0.32735446095466614,,,,,,
25999,54.0,,,,,,,,,,,,0.3373754024505615,,,,,,
26049,54.0,,,,,,,,,,,,0.24049359560012817,,,,,,
26099,54.0,,,,,,,,,,,,0.559891402721405,,,,,,
26149,54.0,,,,,,,,,,,,0.22228464484214783,,,,,,
26199,54.0,,,,,,,,,,,,0.4273257851600647,,,,,,
26249,54.0,,,,,,,,,,,,0.2616685628890991,,,,,,
26299,54.0,,,,,,,,,,,,0.2574946880340576,,,,,,
26349,54.0,,,,,,,,,,,,0.36786627769470215,,,,,,
26399,54.0,,,,,,,,0.0,0.0,0.0,0.0,0.31279826164245605,5.846720227964397e-07,16.902969360351562,2.1045634746551514,4.940186023712158,9.858219146728516,0.7155621647834778
26400,,,5.876379987057589e-07,,,,,,,,,,,,,,,,
26449,55.0,,,,,,,,,,,,0.3859208822250366,,,,,,
26499,55.0,,,,,,,,,,,,0.35188668966293335,,,,,,
26549,55.0,,,,,,,,,,,,0.3012368679046631,,,,,,
26599,55.0,,,,,,,,,,,,0.4549659192562103,,,,,,
26649,55.0,,,,,,,,,,,,0.2890974283218384,,,,,,
26699,55.0,,,,,,,,,,,,0.4284327030181885,,,,,,
26749,55.0,,,,,,,,,,,,0.3898327946662903,,,,,,
26799,55.0,,,,,,,,,,,,0.43231910467147827,,,,,,
26849,55.0,,,,,,,,,,,,0.2705330550670624,,,,,,
26879,55.0,,,,,,,,0.0,0.0,0.0,0.0,,5.876379987057589e-07,16.637128829956055,1.8830305337905884,5.028799057006836,9.725298881530762,0.7099007964134216
26880,,,5.906439923819562e-07,,,,,,,,,,,,,,,,
26899,56.0,,,,,,,,,,,,0.43428051471710205,,,,,,
26949,56.0,,,,,,,,,,,,0.3109170198440552,,,,,,
26999,56.0,,,,,,,,,,,,0.3299616575241089,,,,,,
27049,56.0,,,,,,,,,,,,0.44979503750801086,,,,,,
27099,56.0,,,,,,,,,,,,0.3586139976978302,,,,,,
27149,56.0,,,,,,,,,,,,0.16736584901809692,,,,,,
27199,56.0,,,,,,,,,,,,0.4885665476322174,,,,,,
27249,56.0,,,,,,,,,,,,0.37752828001976013,,,,,,
27299,56.0,,,,,,,,,,,,0.464627742767334,,,,,,
27349,56.0,,,,,,,,,,,,0.3269425630569458,,,,,,
27359,56.0,,,,,,,,0.0,0.0,0.0,0.0,,5.906439923819562e-07,16.814355850219727,1.9716438055038452,5.095259189605713,9.747452735900879,0.7210190892219543
27360,,,5.936893217040051e-07,,,,,,,,,,,,,,,,
27399,57.0,,,,,,,,,,,,0.4189966022968292,,,,,,
27449,57.0,,,,,,,,,,,,0.17357060313224792,,,,,,
27499,57.0,,,,,,,,,,,,0.29405003786087036,,,,,,
27549,57.0,,,,,,,,,,,,0.19412696361541748,,,,,,
27599,57.0,,,,,,,,,,,,0.3150416612625122,,,,,,
27649,57.0,,,,,,,,,,,,0.2857877016067505,,,,,,
27699,57.0,,,,,,,,,,,,0.38668155670166016,,,,,,
27749,57.0,,,,,,,,,,,,0.42184147238731384,,,,,,
27799,57.0,,,,,,,,,,,,0.25150740146636963,,,,,,
27839,57.0,,,,,,,,0.0,0.0,0.0,0.0,,5.936893217040051e-07,16.614974975585938,1.9273371696472168,5.006646156311035,9.680992126464844,0.7075185775756836
27840,,,5.967732477074605e-07,,,,,,,,,,,,,,,,
27849,58.0,,,,,,,,,,,,0.27567780017852783,,,,,,
27899,58.0,,,,,,,,,,,,0.4857516288757324,,,,,,
27949,58.0,,,,,,,,,,,,0.154889777302742,,,,,,
27999,58.0,,,,,,,,,,,,0.2761145830154419,,,,,,
28049,58.0,,,,,,,,,,,,0.479425847530365,,,,,,
28099,58.0,,,,,,,,,,,,0.3242630660533905,,,,,,
28149,58.0,,,,,,,,,,,,0.40603214502334595,,,,,,
28199,58.0,,,,,,,,,,,,0.35027801990509033,,,,,,
28249,58.0,,,,,,,,,,,,0.3541792035102844,,,,,,
28299,58.0,,,,,,,,,,,,0.3009517192840576,,,,,,
28319,58.0,,,,,,,,0.0,0.0,0.0,0.0,,5.967732477074605e-07,17.013734817504883,1.9716438055038452,5.183872222900391,9.858219146728516,0.723880410194397
28320,,,5.998949177410395e-07,,,,,,,,,,,,,,,,
28349,59.0,,,,,,,,,,,,0.3420097827911377,,,,,,
28399,59.0,,,,,,,,,,,,0.2650812268257141,,,,,,
28449,59.0,,,,,,,,,,,,0.2922509014606476,,,,,,
28499,59.0,,,,,,,,,,,,0.2602842152118683,,,,,,
28549,59.0,,,,,,,,,,,,0.2778339982032776,,,,,,
28599,59.0,,,,,,,,,,,,0.40667665004730225,,,,,,
28649,59.0,,,,,,,,,,,,0.3336361050605774,,,,,,
28699,59.0,,,,,,,,,,,,0.7009850144386292,,,,,,
28749,59.0,,,,,,,,,,,,0.2934279441833496,,,,,,
28799,59.0,,,,,,,,0.0,0.0,0.0,0.0,0.6254819631576538,5.998949177410395e-07,16.814355850219727,1.9051839113235474,5.095259189605713,9.813912391662598,0.7178452610969543
28800,,,6.030537065271346e-07,,,,,,,,,,,,,,,,
28849,60.0,,,,,,,,,,,,0.21468213200569153,,,,,,
28899,60.0,,,,,,,,,,,,0.2614519000053406,,,,,,
28949,60.0,,,,,,,,,,,,0.31796616315841675,,,,,,
28999,60.0,,,,,,,,,,,,0.25209373235702515,,,,,,
29049,60.0,,,,,,,,,,,,0.3106299638748169,,,,,,
29099,60.0,,,,,,,,,,,,0.3146215081214905,,,,,,
29149,60.0,,,,,,,,,,,,0.3725270926952362,,,,,,
29199,60.0,,,,,,,,,,,,0.33028799295425415,,,,,,
29249,60.0,,,,,,,,,,,,0.4290243983268738,,,,,,
29279,60.0,,,,,,,,0.0,0.0,0.0,0.0,,6.030537065271346e-07,16.925121307373047,2.0602569580078125,5.006646156311035,9.858219146728516,0.7154780626296997
29280,,,6.062487045710441e-07,,,,,,,,,,,,,,,,
29299,61.0,,,,,,,,,,,,0.39529430866241455,,,,,,
29349,61.0,,,,,,,,,,,,0.39116206765174866,,,,,,
29399,61.0,,,,,,,,,,,,0.377987802028656,,,,,,
29449,61.0,,,,,,,,,,,,0.2941173315048218,,,,,,
29499,61.0,,,,,,,,,,,,0.24832649528980255,,,,,,
29549,61.0,,,,,,,,,,,,0.38195252418518066,,,,,,
29599,61.0,,,,,,,,,,,,0.29891425371170044,,,,,,
29649,61.0,,,,,,,,,,,,0.28640472888946533,,,,,,
29699,61.0,,,,,,,,,,,,0.35126829147338867,,,,,,
29749,61.0,,,,,,,,,,,,0.28815972805023193,,,,,,
29759,61.0,,,,,,,,0.0,0.0,0.0,0.0,,6.062487045710441e-07,16.393442153930664,1.9716438055038452,4.7629594802856445,9.658839225769043,0.7060360312461853
29760,,,6.094791729083227e-07,,,,,,,,,,,,,,,,
29799,62.0,,,,,,,,,,,,0.2959279417991638,,,,,,
29849,62.0,,,,,,,,,,,,0.3767726421356201,,,,,,
29899,62.0,,,,,,,,,,,,0.4242440164089203,,,,,,
29949,62.0,,,,,,,,,,,,0.33072566986083984,,,,,,
29999,62.0,,,,,,,,,,,,0.2794885039329529,,,,,,
30049,62.0,,,,,,,,,,,,0.3722333312034607,,,,,,
30099,62.0,,,,,,,,,,,,0.5269233584403992,,,,,,
30149,62.0,,,,,,,,,,,,0.23299002647399902,,,,,,
30199,62.0,,,,,,,,,,,,0.2732861042022705,,,,,,
30239,62.0,,,,,,,,0.0,0.0,0.0,0.0,,6.094791729083227e-07,16.83650779724121,1.9937970638275146,5.2946391105651855,9.548072814941406,0.7214174866676331
30240,,,6.127443157311063e-07,,,,,,,,,,,,,,,,
30249,63.0,,,,,,,,,,,,0.2925100326538086,,,,,,
30299,63.0,,,,,,,,,,,,0.5678958892822266,,,,,,
30349,63.0,,,,,,,,,,,,0.40893644094467163,,,,,,
30399,63.0,,,,,,,,,,,,0.3607787489891052,,,,,,
30449,63.0,,,,,,,,,,,,0.45240864157676697,,,,,,
30499,63.0,,,,,,,,,,,,0.2762051820755005,,,,,,
30549,63.0,,,,,,,,,,,,0.34378767013549805,,,,,,
30599,63.0,,,,,,,,,,,,0.37669795751571655,,,,,,
30649,63.0,,,,,,,,,,,,0.5453299283981323,,,,,,
30699,63.0,,,,,,,,,,,,0.3289211392402649,,,,,,
30719,63.0,,,,,,,,0.0,0.0,0.0,0.0,,6.127443157311063e-07,16.703588485717773,1.9494904279708862,4.984492778778076,9.76960563659668,0.7087403535842896
30720,,,6.160432803881122e-07,,,,,,,,,,,,,,,,
30749,64.0,,,,,,,,,,,,0.2917100191116333,,,,,,
30799,64.0,,,,,,,,,,,,0.2690722942352295,,,,,,
30849,64.0,,,,,,,,,,,,0.4178759753704071,,,,,,
30899,64.0,,,,,,,,,,,,0.2459227293729782,,,,,,
30949,64.0,,,,,,,,,,,,0.516040563583374,,,,,,
30999,64.0,,,,,,,,,,,,0.3252817392349243,,,,,,
31049,64.0,,,,,,,,,,,,0.6390825510025024,,,,,,
31099,64.0,,,,,,,,,,,,0.23074866831302643,,,,,,
31149,64.0,,,,,,,,,,,,0.46571624279022217,,,,,,
31199,64.0,,,,,,,,0.0,0.0,0.0,0.0,0.21813753247261047,6.160432803881122e-07,16.79220199584961,2.0159504413604736,4.962339401245117,9.813912391662598,0.7206088304519653
31200,,,6.193753847583139e-07,,,,,,,,,,,,,,,,
31249,65.0,,,,,,,,,,,,0.4190979599952698,,,,,,
31299,65.0,,,,,,,,,,,,0.41909611225128174,,,,,,
31349,65.0,,,,,,,,,,,,0.2839943766593933,,,,,,
31399,65.0,,,,,,,,,,,,0.23263445496559143,,,,,,
31449,65.0,,,,,,,,,,,,0.35200080275535583,,,,,,
31499,65.0,,,,,,,,,,,,0.2851310968399048,,,,,,
31549,65.0,,,,,,,,,,,,0.3073289394378662,,,,,,
31599,65.0,,,,,,,,,,,,0.4806663393974304,,,,,,
31649,65.0,,,,,,,,,,,,0.2933078408241272,,,,,,
31679,65.0,,,,,,,,0.0,0.0,0.0,0.0,,6.193753847583139e-07,16.814355850219727,2.1267168521881104,5.117412567138672,9.570225715637207,0.7220888733863831
31680,,,6.227396625035908e-07,,,,,,,,,,,,,,,,
31699,66.0,,,,,,,,,,,,0.22432619333267212,,,,,,
31749,66.0,,,,,,,,,,,,0.19656503200531006,,,,,,
31799,66.0,,,,,,,,,,,,0.23425546288490295,,,,,,
31849,66.0,,,,,,,,,,,,0.28149330615997314,,,,,,
31899,66.0,,,,,,,,,,,,0.2603275179862976,,,,,,
31949,66.0,,,,,,,,,,,,0.3467825949192047,,,,,,
31999,66.0,,,,,,,,,,,,0.4476104974746704,,,,,,
32049,66.0,,,,,,,,,,,,0.3050817847251892,,,,,,
32099,66.0,,,,,,,,,,,,0.3693580627441406,,,,,,
32149,66.0,,,,,,,,,,,,0.40240365266799927,,,,,,
32159,66.0,,,,,,,,0.0,0.0,0.0,0.0,,6.227396625035908e-07,16.526363372802734,2.0824103355407715,4.8515729904174805,9.592379570007324,0.7096253633499146
32160,,,6.261353178160789e-07,,,,,,,,,,,,,,,,
32199,67.0,,,,,,,,,,,,0.3418739438056946,,,,,,
32249,67.0,,,,,,,,,,,,0.2220841348171234,,,,,,
32299,67.0,,,,,,,,,,,,0.4792575538158417,,,,,,
32349,67.0,,,,,,,,,,,,0.2923150658607483,,,,,,
32399,67.0,,,,,,,,,,,,0.31794580817222595,,,,,,
32449,67.0,,,,,,,,,,,,0.39104002714157104,,,,,,
32499,67.0,,,,,,,,,,,,0.3022838234901428,,,,,,
32549,67.0,,,,,,,,,,,,0.24208450317382812,,,,,,
32599,67.0,,,,,,,,,,,,0.39341461658477783,,,,,,
32639,67.0,,,,,,,,0.0,0.0,0.0,0.0,,6.261353178160789e-07,16.96942901611328,2.1488702297210693,5.117412567138672,9.703145980834961,0.7196801900863647
32640,,,6.295615548879141e-07,,,,,,,,,,,,,,,,
32649,68.0,,,,,,,,,,,,0.33246028423309326,,,,,,
32699,68.0,,,,,,,,,,,,0.3772784471511841,,,,,,
32749,68.0,,,,,,,,,,,,0.45278996229171753,,,,,,
32799,68.0,,,,,,,,,,,,0.3919215202331543,,,,,,
32849,68.0,,,,,,,,,,,,0.49222856760025024,,,,,,
32899,68.0,,,,,,,,,,,,0.31659650802612305,,,,,,
32949,68.0,,,,,,,,,,,,0.28916579484939575,,,,,,
32999,68.0,,,,,,,,,,,,0.369678795337677,,,,,,
33049,68.0,,,,,,,,,,,,0.22053095698356628,,,,,,
33099,68.0,,,,,,,,,,,,0.2474593073129654,,,,,,
33119,68.0,,,,,,,,0.0,0.0,0.0,0.0,,6.295615548879141e-07,16.703588485717773,2.1267168521881104,4.984492778778076,9.592379570007324,0.7117980122566223
33120,,,6.330175210678135e-07,,,,,,,,,,,,,,,,
33149,69.0,,,,,,,,,,,,0.29701098799705505,,,,,,
33199,69.0,,,,,,,,,,,,0.2916286587715149,,,,,,
33249,69.0,,,,,,,,,,,,0.3215082287788391,,,,,,
33299,69.0,,,,,,,,,,,,0.22319917380809784,,,,,,
33349,69.0,,,,,,,,,,,,0.4043411612510681,,,,,,
33399,69.0,,,,,,,,,,,,0.3234098255634308,,,,,,
33449,69.0,,,,,,,,,,,,0.44158536195755005,,,,,,
33499,69.0,,,,,,,,,,,,0.2972846031188965,,,,,,
33549,69.0,,,,,,,,,,,,0.25625261664390564,,,,,,
33599,69.0,,,,,,,,0.0,0.0,0.0,0.0,0.45360201597213745,6.330175210678135e-07,16.54851531982422,1.9716438055038452,4.8294196128845215,9.747452735900879,0.7071061134338379
33600,,,6.365023637044942e-07,,,,,,,,,,,,,,,,
33649,70.0,,,,,,,,,,,,0.1864040344953537,,,,,,
33699,70.0,,,,,,,,,,,,0.288830429315567,,,,,,
33749,70.0,,,,,,,,,,,,0.33647340536117554,,,,,,
33799,70.0,,,,,,,,,,,,0.26051831245422363,,,,,,
33849,70.0,,,,,,,,,,,,0.24584950506687164,,,,,,
33899,70.0,,,,,,,,,,,,0.24837976694107056,,,,,,
33949,70.0,,,,,,,,,,,,0.3559325933456421,,,,,,
33999,70.0,,,,,,,,,,,,0.32634395360946655,,,,,,
34049,70.0,,,,,,,,,,,,0.25659316778182983,,,,,,
34079,70.0,,,,,,,,0.0,0.0,0.0,0.0,,6.365023637044942e-07,17.058042526245117,2.1267168521881104,5.449711799621582,9.481613159179688,0.7215548753738403
34080,,,6.400152301466733e-07,,,,,,,,,,,,,,,,
34099,71.0,,,,,,,,,,,,0.2919935882091522,,,,,,
34149,71.0,,,,,,,,,,,,0.4165480136871338,,,,,,
34199,71.0,,,,,,,,,,,,0.44787395000457764,,,,,,
34249,71.0,,,,,,,,,,,,0.4581746757030487,,,,,,
34299,71.0,,,,,,,,,,,,0.3508386015892029,,,,,,
34349,71.0,,,,,,,,,,,,0.2560095191001892,,,,,,
34399,71.0,,,,,,,,,,,,0.5094238519668579,,,,,,
34449,71.0,,,,,,,,,,,,0.42298197746276855,,,,,,
34499,71.0,,,,,,,,,,,,0.26690271496772766,,,,,,
34549,71.0,,,,,,,,,,,,0.3339065611362457,,,,,,
34559,71.0,,,,,,,,0.0,0.0,0.0,0.0,,6.400152301466733e-07,16.681434631347656,2.0381035804748535,5.316792011260986,9.326539993286133,0.7171213626861572
34560,,,6.435551540562301e-07,,,,,,,,,,,,,,,,
34599,72.0,,,,,,,,,,,,0.3653784990310669,,,,,,
34649,72.0,,,,,,,,,,,,0.2779220640659332,,,,,,
34699,72.0,,,,,,,,,,,,0.28254327178001404,,,,,,
34749,72.0,,,,,,,,,,,,0.42545396089553833,,,,,,
34799,72.0,,,,,,,,,,,,0.2971653938293457,,,,,,
34849,72.0,,,,,,,,,,,,0.4069143533706665,,,,,,
34899,72.0,,,,,,,,,,,,0.29746150970458984,,,,,,
34949,72.0,,,,,,,,,,,,0.4672066867351532,,,,,,
34999,72.0,,,,,,,,,,,,0.35858386754989624,,,,,,
35039,72.0,,,,,,,,0.0,0.0,0.0,0.0,,6.435551540562301e-07,16.747896194458008,2.215330123901367,5.028799057006836,9.503766059875488,0.7194160223007202
35040,,,6.471213964687195e-07,,,,,,,,,,,,,,,,
35049,73.0,,,,,,,,,,,,0.32803666591644287,,,,,,
35099,73.0,,,,,,,,,,,,0.29082125425338745,,,,,,
35149,73.0,,,,,,,,,,,,0.401281476020813,,,,,,
35199,73.0,,,,,,,,,,,,0.3966817259788513,,,,,,
35249,73.0,,,,,,,,,,,,0.2692314684391022,,,,,,
35299,73.0,,,,,,,,,,,,0.5118238925933838,,,,,,
35349,73.0,,,,,,,,,,,,0.3468667268753052,,,,,,
35399,73.0,,,,,,,,,,,,0.6576944589614868,,,,,,
35449,73.0,,,,,,,,,,,,0.5428347587585449,,,,,,
35499,73.0,,,,,,,,,,,,0.36251020431518555,,,,,,
35519,73.0,,,,,,,,0.0,0.0,0.0,0.0,,6.471213964687195e-07,16.703588485717773,2.1045634746551514,5.050952434539795,9.548072814941406,0.7168684005737305
35520,,,6.507130478894396e-07,,,,,,,,,,,,,,,,
35549,74.0,,,,,,,,,,,,0.26709896326065063,,,,,,
35599,74.0,,,,,,,,,,,,0.30896925926208496,,,,,,
35649,74.0,,,,,,,,,,,,0.22190162539482117,,,,,,
35699,74.0,,,,,,,,,,,,0.45682206749916077,,,,,,
35749,74.0,,,,,,,,,,,,0.5155587196350098,,,,,,
35799,74.0,,,,,,,,,,,,0.3001899719238281,,,,,,
35849,74.0,,,,,,,,,,,,0.3498924970626831,,,,,,
35899,74.0,,,,,,,,,,,,0.37957891821861267,,,,,,
35949,74.0,,,,,,,,,,,,0.3995017409324646,,,,,,
35999,74.0,,,,,,,,0.0,0.0,0.0,0.0,0.3276820182800293,6.507130478894396e-07,17.124502182006836,2.1267168521881104,5.2946391105651855,9.703145980834961,0.7252259254455566
36000,,,6.543291419802699e-07,,,,,,,,,,,,,,,,
36049,75.0,,,,,,,,,,,,0.35564470291137695,,,,,,
36099,75.0,,,,,,,,,,,,0.2863750159740448,,,,,,
36149,75.0,,,,,,,,,,,,0.3025062680244446,,,,,,
36199,75.0,,,,,,,,,,,,0.45766228437423706,,,,,,
36249,75.0,,,,,,,,,,,,0.45656347274780273,,,,,,
36299,75.0,,,,,,,,,,,,0.359112024307251,,,,,,
36349,75.0,,,,,,,,,,,,0.37300318479537964,,,,,,
36399,75.0,,,,,,,,,,,,0.2955682873725891,,,,,,
36449,75.0,,,,,,,,,,,,0.5286208391189575,,,,,,
36479,75.0,,,,,,,,0.0,0.0,0.0,0.0,,6.543291419802699e-07,16.991580963134766,2.1488702297210693,5.316792011260986,9.525918960571289,0.720137894153595
36480,,,6.579688829333463e-07,,,,,,,,,,,,,,,,
36499,76.0,,,,,,,,,,,,0.34874945878982544,,,,,,
36549,76.0,,,,,,,,,,,,0.31569904088974,,,,,,
36599,76.0,,,,,,,,,,,,0.2375720739364624,,,,,,
36649,76.0,,,,,,,,,,,,0.37397855520248413,,,,,,
36699,76.0,,,,,,,,,,,,0.34223103523254395,,,,,,
36749,76.0,,,,,,,,,,,,0.2435460090637207,,,,,,
36799,76.0,,,,,,,,,,,,0.3067447543144226,,,,,,
36849,76.0,,,,,,,,,,,,0.25796759128570557,,,,,,
36899,76.0,,,,,,,,,,,,0.3007652759552002,,,,,,
36949,76.0,,,,,,,,,,,,0.2841529846191406,,,,,,
36959,76.0,,,,,,,,0.0,0.0,0.0,0.0,,6.579688829333463e-07,16.614974975585938,2.1488702297210693,5.095259189605713,9.370845794677734,0.710215151309967
36960,,,6.616313044105482e-07,,,,,,,,,,,,,,,,
36999,77.0,,,,,,,,,,,,0.32165849208831787,,,,,,
37049,77.0,,,,,,,,,,,,0.40155911445617676,,,,,,
37099,77.0,,,,,,,,,,,,0.6340274810791016,,,,,,
37149,77.0,,,,,,,,,,,,0.3962424397468567,,,,,,
37199,77.0,,,,,,,,,,,,0.35907548666000366,,,,,,
37249,77.0,,,,,,,,,,,,0.25430697202682495,,,,,,
37299,77.0,,,,,,,,,,,,0.4263898730278015,,,,,,
37349,77.0,,,,,,,,,,,,0.27731412649154663,,,,,,
37399,77.0,,,,,,,,,,,,0.4178563356399536,,,,,,
37439,77.0,,,,,,,,0.0,0.0,0.0,0.0,,6.616313044105482e-07,16.4820556640625,1.9494904279708862,5.095259189605713,9.43730640411377,0.7142350077629089
37440,,,6.653154969171737e-07,,,,,,,,,,,,,,,,
37449,78.0,,,,,,,,,,,,0.3356685936450958,,,,,,
37499,78.0,,,,,,,,,,,,0.2692929208278656,,,,,,
37549,78.0,,,,,,,,,,,,0.36975061893463135,,,,,,
37599,78.0,,,,,,,,,,,,0.4395780861377716,,,,,,
37649,78.0,,,,,,,,,,,,0.5624256134033203,,,,,,
37699,78.0,,,,,,,,,,,,0.3117421269416809,,,,,,
37749,78.0,,,,,,,,,,,,0.309098482131958,,,,,,
37799,78.0,,,,,,,,,,,,0.4202810525894165,,,,,,
37849,78.0,,,,,,,,,,,,0.4309811592102051,,,,,,
37899,78.0,,,,,,,,,,,,0.2557833790779114,,,,,,
37919,78.0,,,,,,,,0.0,0.0,0.0,0.0,,6.653154969171737e-07,16.703588485717773,2.0824103355407715,5.16171932220459,9.45945930480957,0.7141204476356506
37920,,,6.690206646453589e-07,,,,,,,,,,,,,,,,
37949,79.0,,,,,,,,,,,,0.35084131360054016,,,,,,
37999,79.0,,,,,,,,,,,,0.16189609467983246,,,,,,
38049,79.0,,,,,,,,,,,,0.3067508935928345,,,,,,
38099,79.0,,,,,,,,,,,,0.30547553300857544,,,,,,
38149,79.0,,,,,,,,,,,,0.4735197424888611,,,,,,
38199,79.0,,,,,,,,,,,,0.318073570728302,,,,,,
38249,79.0,,,,,,,,,,,,0.27202320098876953,,,,,,
38299,79.0,,,,,,,,,,,,0.32224172353744507,,,,,,
38349,79.0,,,,,,,,,,,,0.2679014801979065,,,,,,
38399,79.0,,,,,,,,0.0,0.0,0.0,0.0,0.23434481024742126,6.690206646453589e-07,16.614974975585938,1.9716438055038452,5.20602560043335,9.43730640411377,0.715432345867157
38400,,,6.727457275701454e-07,,,,,,,,,,,,,,,,
38449,80.0,,,,,,,,,,,,0.38381722569465637,,,,,,
38499,80.0,,,,,,,,,,,,0.20386618375778198,,,,,,
38549,80.0,,,,,,,,,,,,0.3439159691333771,,,,,,
38599,80.0,,,,,,,,,,,,0.2983364164829254,,,,,,
38649,80.0,,,,,,,,,,,,0.315885066986084,,,,,,
38699,80.0,,,,,,,,,,,,0.31462979316711426,,,,,,
38749,80.0,,,,,,,,,,,,0.29415613412857056,,,,,,
38799,80.0,,,,,,,,,,,,0.16562072932720184,,,,,,
38849,80.0,,,,,,,,,,,,0.22546933591365814,,,,,,
38879,80.0,,,,,,,,0.0,0.0,0.0,0.0,,6.727457275701454e-07,17.10234832763672,2.1045634746551514,5.338945388793945,9.658839225769043,0.7278587222099304
38880,,,6.76489946727088e-07,,,,,,,,,,,,,,,,
38899,81.0,,,,,,,,,,,,0.37027859687805176,,,,,,
38949,81.0,,,,,,,,,,,,0.2517251670360565,,,,,,
38999,81.0,,,,,,,,,,,,0.2149941772222519,,,,,,
39049,81.0,,,,,,,,,,,,0.3931712806224823,,,,,,
39099,81.0,,,,,,,,,,,,0.29058098793029785,,,,,,
39149,81.0,,,,,,,,,,,,0.4354754388332367,,,,,,
39199,81.0,,,,,,,,,,,,0.2394072711467743,,,,,,
39249,81.0,,,,,,,,,,,,0.29428744316101074,,,,,,
39299,81.0,,,,,,,,,,,,0.4684901237487793,,,,,,
39349,81.0,,,,,,,,,,,,0.3400784730911255,,,,,,
39359,81.0,,,,,,,,0.0,0.0,0.0,0.0,,6.76489946727088e-07,16.814355850219727,2.1045634746551514,5.338945388793945,9.370845794677734,0.7282437682151794
39360,,,6.802522420912283e-07,,,,,,,,,,,,,,,,
39399,82.0,,,,,,,,,,,,0.41517236828804016,,,,,,
39449,82.0,,,,,,,,,,,,0.26641082763671875,,,,,,
39499,82.0,,,,,,,,,,,,0.48481079936027527,,,,,,
39549,82.0,,,,,,,,,,,,0.2752358913421631,,,,,,
39599,82.0,,,,,,,,,,,,0.45825761556625366,,,,,,
39649,82.0,,,,,,,,,,,,0.2720198631286621,,,,,,
39699,82.0,,,,,,,,,,,,0.3680133819580078,,,,,,
39749,82.0,,,,,,,,,,,,0.5722647905349731,,,,,,
39799,82.0,,,,,,,,,,,,0.3071861267089844,,,,,,
39839,82.0,,,,,,,,0.0,0.0,0.0,0.0,,6.802522420912283e-07,16.703588485717773,1.9716438055038452,5.050952434539795,9.680992126464844,0.7179555296897888
39840,,,6.840317610112834e-07,,,,,,,,,,,,,,,,
39849,83.0,,,,,,,,,,,,0.3440106213092804,,,,,,
39899,83.0,,,,,,,,,,,,0.30636510252952576,,,,,,
39949,83.0,,,,,,,,,,,,0.4430306851863861,,,,,,
39999,83.0,,,,,,,,,,,,0.5020630955696106,,,,,,
40049,83.0,,,,,,,,,,,,0.3213220238685608,,,,,,
40099,83.0,,,,,,,,,,,,0.4598350524902344,,,,,,
40149,83.0,,,,,,,,,,,,0.33272725343704224,,,,,,
40199,83.0,,,,,,,,,,,,0.3094838857650757,,,,,,
40249,83.0,,,,,,,,,,,,0.24054789543151855,,,,,,
40299,83.0,,,,,,,,,,,,0.3037756681442261,,,,,,
40319,83.0,,,,,,,,0.0,0.0,0.0,0.0,,6.840317610112834e-07,16.902969360351562,1.9494904279708862,5.272485733032227,9.680992126464844,0.7199347615242004
40320,,,6.878275371491327e-07,,,,,,,,,,,,,,,,
40349,84.0,,,,,,,,,,,,0.2549728751182556,,,,,,
40399,84.0,,,,,,,,,,,,0.22190134227275848,,,,,,
40449,84.0,,,,,,,,,,,,0.35643795132637024,,,,,,
40499,84.0,,,,,,,,,,,,0.33650344610214233,,,,,,
40549,84.0,,,,,,,,,,,,0.5247435569763184,,,,,,
40599,84.0,,,,,,,,,,,,0.2726600766181946,,,,,,
40649,84.0,,,,,,,,,,,,0.3338911831378937,,,,,,
40699,84.0,,,,,,,,,,,,0.3810625672340393,,,,,,
40749,84.0,,,,,,,,,,,,0.4302230477333069,,,,,,
40799,84.0,,,,,,,,0.0,0.0,0.0,0.0,0.3193681240081787,6.878275371491327e-07,17.235267639160156,2.1267168521881104,5.582631587982178,9.525918960571289,0.7326412796974182
40800,,,6.916386610100744e-07,,,,,,,,,,,,,,,,
40849,85.0,,,,,,,,,,,,0.2083597630262375,,,,,,
40899,85.0,,,,,,,,,,,,0.4493170976638794,,,,,,
40949,85.0,,,,,,,,,,,,0.33021384477615356,,,,,,
40999,85.0,,,,,,,,,,,,0.3504031300544739,,,,,,
41049,85.0,,,,,,,,,,,,0.4813753366470337,,,,,,
41099,85.0,,,,,,,,,,,,0.35957038402557373,,,,,,
41149,85.0,,,,,,,,,,,,0.44513776898384094,,,,,,
41199,85.0,,,,,,,,,,,,0.4688693583011627,,,,,,
41249,85.0,,,,,,,,,,,,0.4837276041507721,,,,,,
41279,85.0,,,,,,,,0.0,0.0,0.0,0.0,,6.916386610100744e-07,16.858661651611328,2.171023368835449,5.20602560043335,9.481613159179688,0.7076328992843628
41280,,,6.95464166255988e-07,,,,,,,,,,,,,,,,
41299,86.0,,,,,,,,,,,,0.217366561293602,,,,,,
41349,86.0,,,,,,,,,,,,0.27643269300460815,,,,,,
41399,86.0,,,,,,,,,,,,0.3811608850955963,,,,,,
41449,86.0,,,,,,,,,,,,0.37980785965919495,,,,,,
41499,86.0,,,,,,,,,,,,0.31037437915802,,,,,,
41549,86.0,,,,,,,,,,,,0.44528770446777344,,,,,,
41599,86.0,,,,,,,,,,,,0.46686112880706787,,,,,,
41649,86.0,,,,,,,,,,,,0.40055733919143677,,,,,,
41699,86.0,,,,,,,,,,,,0.3628943860530853,,,,,,
41749,86.0,,,,,,,,,,,,0.2702598571777344,,,,,,
41759,86.0,,,,,,,,0.0,0.0,0.0,0.0,,6.95464166255988e-07,16.991580963134766,2.0602569580078125,5.361098766326904,9.570225715637207,0.7288683652877808
41760,,,6.993032002355903e-07,,,,,,,,,,,,,,,,
41799,87.0,,,,,,,,,,,,0.3721100687980652,,,,,,
41849,87.0,,,,,,,,,,,,0.450628399848938,,,,,,
41899,87.0,,,,,,,,,,,,0.39889952540397644,,,,,,
41949,87.0,,,,,,,,,,,,0.4302554130554199,,,,,,
41999,87.0,,,,,,,,,,,,0.27464860677719116,,,,,,
42049,87.0,,,,,,,,,,,,0.3265398442745209,,,,,,
42099,87.0,,,,,,,,,,,,0.3844250738620758,,,,,,
42149,87.0,,,,,,,,,,,,0.46350863575935364,,,,,,
42199,87.0,,,,,,,,,,,,0.40471237897872925,,,,,,
42239,87.0,,,,,,,,0.0,0.0,0.0,0.0,,6.993032002355903e-07,17.035888671875,2.193176746368408,5.228178977966309,9.614532470703125,0.7264217138290405
42240,,,7.031546829239232e-07,,,,,,,,,,,,,,,,
42249,88.0,,,,,,,,,,,,0.26386553049087524,,,,,,
42299,88.0,,,,,,,,,,,,0.3368380069732666,,,,,,
42349,88.0,,,,,,,,,,,,0.4082227349281311,,,,,,
42399,88.0,,,,,,,,,,,,0.25629788637161255,,,,,,
42449,88.0,,,,,,,,,,,,0.38259148597717285,,,,,,
42499,88.0,,,,,,,,,,,,0.29614511132240295,,,,,,
42549,88.0,,,,,,,,,,,,0.35817086696624756,,,,,,
42599,88.0,,,,,,,,,,,,0.28675803542137146,,,,,,
42649,88.0,,,,,,,,,,,,0.3095082640647888,,,,,,
42699,88.0,,,,,,,,,,,,0.36821675300598145,,,,,,
42719,88.0,,,,,,,,0.0,0.0,0.0,0.0,,7.031546829239232e-07,17.27957534790039,2.171023368835449,5.427558898925781,9.680992126464844,0.7288403511047363
42720,,,7.070177048262849e-07,,,,,,,,,,,,,,,,
42749,89.0,,,,,,,,,,,,0.3989616930484772,,,,,,
42799,89.0,,,,,,,,,,,,0.3720102906227112,,,,,,
42849,89.0,,,,,,,,,,,,0.2587307393550873,,,,,,
42899,89.0,,,,,,,,,,,,0.4634084403514862,,,,,,
42949,89.0,,,,,,,,,,,,0.391537606716156,,,,,,
42999,89.0,,,,,,,,,,,,0.3635585308074951,,,,,,
43049,89.0,,,,,,,,,,,,0.36533358693122864,,,,,,
43099,89.0,,,,,,,,,,,,0.4140316843986511,,,,,,
43149,89.0,,,,,,,,,,,,0.34009939432144165,,,,,,
43199,89.0,,,,,,,,0.0,0.0,0.0,0.0,0.5937974452972412,7.070177048262849e-07,17.14665412902832,2.0824103355407715,5.316792011260986,9.747452735900879,0.7296752333641052
43200,,,7.108913564479735e-07,,,,,,,,,,,,,,,,
43249,90.0,,,,,,,,,,,,0.5123817920684814,,,,,,
43299,90.0,,,,,,,,,,,,0.2778504192829132,,,,,,
43349,90.0,,,,,,,,,,,,0.29291290044784546,,,,,,
43399,90.0,,,,,,,,,,,,0.22841642796993256,,,,,,
43449,90.0,,,,,,,,,,,,0.23674613237380981,,,,,,
43499,90.0,,,,,,,,,,,,0.26296913623809814,,,,,,
43549,90.0,,,,,,,,,,,,0.48379263281822205,,,,,,
43599,90.0,,,,,,,,,,,,0.3226652145385742,,,,,,
43649,90.0,,,,,,,,,,,,0.25991392135620117,,,,,,
43679,90.0,,,,,,,,0.0,0.0,0.0,0.0,,7.108913564479735e-07,16.858661651611328,1.9716438055038452,5.183872222900391,9.703145980834961,0.71690434217453
43680,,,7.147746714508685e-07,,,,,,,,,,,,,,,,
43699,91.0,,,,,,,,,,,,0.3448926508426666,,,,,,
43749,91.0,,,,,,,,,,,,0.27355945110321045,,,,,,
43799,91.0,,,,,,,,,,,,0.19150544703006744,,,,,,
43849,91.0,,,,,,,,,,,,0.25289005041122437,,,,,,
43899,91.0,,,,,,,,,,,,0.22103279829025269,,,,,,
43949,91.0,,,,,,,,,,,,0.3390299677848816,,,,,,
43999,91.0,,,,,,,,,,,,0.2647193670272827,,,,,,
44049,91.0,,,,,,,,,,,,0.27017301321029663,,,,,,
44099,91.0,,,,,,,,,,,,0.4200769066810608,,,,,,
44149,91.0,,,,,,,,,,,,0.11273209005594254,,,,,,
44159,91.0,,,,,,,,0.0,0.0,0.0,0.0,,7.147746714508685e-07,16.83650779724121,2.0602569580078125,5.028799057006836,9.747452735900879,0.7188063859939575
44160,,,7.186666834968491e-07,,,,,,,,,,,,,,,,
44199,92.0,,,,,,,,,,,,0.23004785180091858,,,,,,
44249,92.0,,,,,,,,,,,,0.3161334991455078,,,,,,
44299,92.0,,,,,,,,,,,,0.3849177062511444,,,,,,
44349,92.0,,,,,,,,,,,,0.35635390877723694,,,,,,
44399,92.0,,,,,,,,,,,,0.35253942012786865,,,,,,
44449,92.0,,,,,,,,,,,,0.27649104595184326,,,,,,
44499,92.0,,,,,,,,,,,,0.1860227882862091,,,,,,
44549,92.0,,,,,,,,,,,,0.27299734950065613,,,,,,
44599,92.0,,,,,,,,,,,,0.2796698212623596,,,,,,
44639,92.0,,,,,,,,0.0,0.0,0.0,0.0,,7.186666834968491e-07,17.124502182006836,2.1267168521881104,5.073105812072754,9.924678802490234,0.717323362827301
44640,,,7.225664262477949e-07,,,,,,,,,,,,,,,,
44649,93.0,,,,,,,,,,,,0.3650486171245575,,,,,,
44699,93.0,,,,,,,,,,,,0.3965652585029602,,,,,,
44749,93.0,,,,,,,,,,,,0.259032279253006,,,,,,
44799,93.0,,,,,,,,,,,,0.48694315552711487,,,,,,
44849,93.0,,,,,,,,,,,,0.21708565950393677,,,,,,
44899,93.0,,,,,,,,,,,,0.3221624493598938,,,,,,
44949,93.0,,,,,,,,,,,,0.3720865547657013,,,,,,
44999,93.0,,,,,,,,,,,,0.34723901748657227,,,,,,
45049,93.0,,,,,,,,,,,,0.3560965657234192,,,,,,
45099,93.0,,,,,,,,,,,,0.31285420060157776,,,,,,
45119,93.0,,,,,,,,0.0,0.0,0.0,0.0,,7.225664262477949e-07,17.0801944732666,2.171023368835449,5.16171932220459,9.747452735900879,0.7145522236824036
45120,,,7.26472933365585e-07,,,,,,,,,,,,,,,,
45149,94.0,,,,,,,,,,,,0.26123160123825073,,,,,,
45199,94.0,,,,,,,,,,,,0.33392059803009033,,,,,,
45249,94.0,,,,,,,,,,,,0.3268074095249176,,,,,,
45299,94.0,,,,,,,,,,,,0.30723708868026733,,,,,,
45349,94.0,,,,,,,,,,,,0.25317782163619995,,,,,,
45399,94.0,,,,,,,,,,,,0.24494506418704987,,,,,,
45449,94.0,,,,,,,,,,,,0.2677218019962311,,,,,,
45499,94.0,,,,,,,,,,,,0.2822192907333374,,,,,,
45549,94.0,,,,,,,,,,,,0.42030903697013855,,,,,,
45599,94.0,,,,,,,,0.0,0.0,0.0,0.0,0.4622270464897156,7.26472933365585e-07,16.858661651611328,1.9716438055038452,5.050952434539795,9.836065292358398,0.715765118598938
45600,,,7.30385238512099e-07,,,,,,,,,,,,,,,,
45649,95.0,,,,,,,,,,,,0.38663074374198914,,,,,,
45699,95.0,,,,,,,,,,,,0.23426029086112976,,,,,,
45749,95.0,,,,,,,,,,,,0.32285353541374207,,,,,,
45799,95.0,,,,,,,,,,,,0.2545141279697418,,,,,,
45849,95.0,,,,,,,,,,,,0.27306151390075684,,,,,,
45899,95.0,,,,,,,,,,,,0.29848814010620117,,,,,,
45949,95.0,,,,,,,,,,,,0.3519236445426941,,,,,,
45999,95.0,,,,,,,,,,,,0.41613996028900146,,,,,,
46049,95.0,,,,,,,,,,,,0.44027623534202576,,,,,,
46079,95.0,,,,,,,,0.0,0.0,0.0,0.0,,7.30385238512099e-07,16.858661651611328,2.0824103355407715,5.050952434539795,9.725298881530762,0.7204861640930176
46080,,,7.343023753492162e-07,,,,,,,,,,,,,,,,
46099,96.0,,,,,,,,,,,,0.45720869302749634,,,,,,
46149,96.0,,,,,,,,,,,,0.3167726993560791,,,,,,
46199,96.0,,,,,,,,,,,,0.3344191014766693,,,,,,
46249,96.0,,,,,,,,,,,,0.23628836870193481,,,,,,
46299,96.0,,,,,,,,,,,,0.46312251687049866,,,,,,
46349,96.0,,,,,,,,,,,,0.42677146196365356,,,,,,
46399,96.0,,,,,,,,,,,,0.32580307126045227,,,,,,
46449,96.0,,,,,,,,,,,,0.39549875259399414,,,,,,
46499,96.0,,,,,,,,,,,,0.340822696685791,,,,,,
46549,96.0,,,,,,,,,,,,0.3312222361564636,,,,,,
46559,96.0,,,,,,,,0.0,0.0,0.0,0.0,,7.343023753492162e-07,16.703588485717773,1.9716438055038452,4.962339401245117,9.76960563659668,0.7201869487762451
46560,,,7.382233775388158e-07,,,,,,,,,,,,,,,,
46599,97.0,,,,,,,,,,,,0.3176994323730469,,,,,,
46649,97.0,,,,,,,,,,,,0.31661057472229004,,,,,,
46699,97.0,,,,,,,,,,,,0.3858409523963928,,,,,,
46749,97.0,,,,,,,,,,,,0.4278515577316284,,,,,,
46799,97.0,,,,,,,,,,,,0.3155812621116638,,,,,,
46849,97.0,,,,,,,,,,,,0.5661792159080505,,,,,,
46899,97.0,,,,,,,,,,,,0.2345113754272461,,,,,,
46949,97.0,,,,,,,,,,,,0.32622629404067993,,,,,,
46999,97.0,,,,,,,,,,,,0.3211914002895355,,,,,,
47039,97.0,,,,,,,,0.0,0.0,0.0,0.0,,7.382233775388158e-07,16.747896194458008,1.9716438055038452,5.117412567138672,9.658839225769043,0.719317615032196
47040,,,7.421473355861963e-07,,,,,,,,,,,,,,,,
47049,98.0,,,,,,,,,,,,0.3436336815357208,,,,,,
47099,98.0,,,,,,,,,,,,0.2775822579860687,,,,,,
47149,98.0,,,,,,,,,,,,0.5691982507705688,,,,,,
47199,98.0,,,,,,,,,,,,0.338702529668808,,,,,,
47249,98.0,,,,,,,,,,,,0.3130466341972351,,,,,,
47299,98.0,,,,,,,,,,,,0.44450563192367554,,,,,,
47349,98.0,,,,,,,,,,,,0.27251750230789185,,,,,,
47399,98.0,,,,,,,,,,,,0.2950631380081177,,,,,,
47449,98.0,,,,,,,,,,,,0.3176306486129761,,,,,,
47499,98.0,,,,,,,,,,,,0.21902436017990112,,,,,,
47519,98.0,,,,,,,,0.0,0.0,0.0,0.0,,7.421473355861963e-07,17.035888671875,1.9716438055038452,5.316792011260986,9.747452735900879,0.7277186512947083
47520,,,7.460731694663991e-07,,,,,,,,,,,,,,,,
47549,99.0,,,,,,,,,,,,0.27829062938690186,,,,,,
47599,99.0,,,,,,,,,,,,0.4929925799369812,,,,,,
47649,99.0,,,,,,,,,,,,0.3187733292579651,,,,,,
47699,99.0,,,,,,,,,,,,0.38410258293151855,,,,,,
47749,99.0,,,,,,,,,,,,0.32144343852996826,,,,,,
47799,99.0,,,,,,,,,,,,0.30964064598083496,,,,,,
47849,99.0,,,,,,,,,,,,0.34362655878067017,,,,,,
47899,99.0,,,,,,,,,,,,0.2723146677017212,,,,,,
47949,99.0,,,,,,,,,,,,0.32779523730278015,,,,,,
47999,99.0,,,,,,,,0.0,0.0,0.0,0.0,0.37651199102401733,7.460731694663991e-07,17.168807983398438,2.1267168521881104,5.338945388793945,9.703145980834961,0.7308709025382996
48000,,,7.500000265281415e-07,,,,,,,,,,,,,,,,
48049,100.0,,,,,,,,,,,,0.40114593505859375,,,,,,
48099,100.0,,,,,,,,,,,,0.34571146965026855,,,,,,
48149,100.0,,,,,,,,,,,,0.240450918674469,,,,,,
48199,100.0,,,,,,,,,,,,0.6100672483444214,,,,,,
48249,100.0,,,,,,,,,,,,0.5193275213241577,,,,,,
48299,100.0,,,,,,,,,,,,0.36099016666412354,,,,,,
48349,100.0,,,,,,,,,,,,0.24947489798069,,,,,,
48399,100.0,,,,,,,,,,,,0.4514848291873932,,,,,,
48449,100.0,,,,,,,,,,,,0.40280693769454956,,,,,,
48479,100.0,,,,,,,,0.0,0.0,0.0,0.0,,7.500000265281415e-07,16.902969360351562,2.0159504413604736,5.16171932220459,9.725298881530762,0.7220293283462524
48480,,,7.539268267464649e-07,,,,,,,,,,,,,,,,
48499,101.0,,,,,,,,,,,,0.27458274364471436,,,,,,
48549,101.0,,,,,,,,,,,,0.49452757835388184,,,,,,
48599,101.0,,,,,,,,,,,,0.2583940029144287,,,,,,
48649,101.0,,,,,,,,,,,,0.42284339666366577,,,,,,
48699,101.0,,,,,,,,,,,,0.36143025755882263,,,,,,
48749,101.0,,,,,,,,,,,,0.37790143489837646,,,,,,
48799,101.0,,,,,,,,,,,,0.4455191493034363,,,,,,
48849,101.0,,,,,,,,,,,,0.3397282361984253,,,,,,
48899,101.0,,,,,,,,,,,,0.3377548158168793,,,,,,
48949,101.0,,,,,,,,,,,,0.3117428421974182,,,,,,
48959,101.0,,,,,,,,0.0,0.0,0.0,0.0,,7.539268267464649e-07,16.637128829956055,1.9937970638275146,5.006646156311035,9.636686325073242,0.7236395478248596
48960,,,7.578527174700866e-07,,,,,,,,,,,,,,,,
48999,102.0,,,,,,,,,,,,0.22569409012794495,,,,,,
49049,102.0,,,,,,,,,,,,0.32507163286209106,,,,,,
49099,102.0,,,,,,,,,,,,0.5742104053497314,,,,,,
49149,102.0,,,,,,,,,,,,0.4144189655780792,,,,,,
49199,102.0,,,,,,,,,,,,0.4404289722442627,,,,,,
49249,102.0,,,,,,,,,,,,0.33849388360977173,,,,,,
49299,102.0,,,,,,,,,,,,0.4980698525905609,,,,,,
49349,102.0,,,,,,,,,,,,0.45259150862693787,,,,,,
49399,102.0,,,,,,,,,,,,0.27982479333877563,,,,,,
49439,102.0,,,,,,,,0.0,0.0,0.0,0.0,,7.578527174700866e-07,16.925121307373047,2.1045634746551514,5.117412567138672,9.703145980834961,0.7387250661849976
49440,,,7.617766186740482e-07,,,,,,,,,,,,,,,,
49449,103.0,,,,,,,,,,,,0.40176987648010254,,,,,,
49499,103.0,,,,,,,,,,,,0.282132089138031,,,,,,
49549,103.0,,,,,,,,,,,,0.22028101980686188,,,,,,
49599,103.0,,,,,,,,,,,,0.23723900318145752,,,,,,
49649,103.0,,,,,,,,,,,,0.5331110954284668,,,,,,
49699,103.0,,,,,,,,,,,,0.33339548110961914,,,,,,
49749,103.0,,,,,,,,,,,,0.23083248734474182,,,,,,
49799,103.0,,,,,,,,,,,,0.3685464560985565,,,,,,
49849,103.0,,,,,,,,,,,,0.2791922390460968,,,,,,
49899,103.0,,,,,,,,,,,,0.24796417355537415,,,,,,
49919,103.0,,,,,,,,0.0,0.0,0.0,0.0,,7.617766186740482e-07,16.858661651611328,2.0824103355407715,4.940186023712158,9.836065292358398,0.7212271094322205
49920,,,7.656976208636479e-07,,,,,,,,,,,,,,,,
49949,104.0,,,,,,,,,,,,0.36078304052352905,,,,,,
49999,104.0,,,,,,,,,,,,0.39982151985168457,,,,,,
50049,104.0,,,,,,,,,,,,0.5174275040626526,,,,,,
50099,104.0,,,,,,,,,,,,0.35505998134613037,,,,,,
50149,104.0,,,,,,,,,,,,0.301824688911438,,,,,,
50199,104.0,,,,,,,,,,,,0.26401475071907043,,,,,,
50249,104.0,,,,,,,,,,,,0.2377886325120926,,,,,,
50299,104.0,,,,,,,,,,,,0.35457631945610046,,,,,,
50349,104.0,,,,,,,,,,,,0.38782501220703125,,,,,,
50399,104.0,,,,,,,,0.0,0.0,0.0,0.0,0.28422093391418457,7.656976208636479e-07,16.79220199584961,2.0824103355407715,5.050952434539795,9.658839225769043,0.7159741520881653
50400,,,7.69614757700765e-07,,,,,,,,,,,,,,,,
50449,105.0,,,,,,,,,,,,0.3163425922393799,,,,,,
50499,105.0,,,,,,,,,,,,0.27163809537887573,,,,,,
50549,105.0,,,,,,,,,,,,0.2684488892555237,,,,,,
50599,105.0,,,,,,,,,,,,0.2270772010087967,,,,,,
50649,105.0,,,,,,,,,,,,0.3133465349674225,,,,,,
50699,105.0,,,,,,,,,,,,0.3790123462677002,,,,,,
50749,105.0,,,,,,,,,,,,0.42181262373924255,,,,,,
50799,105.0,,,,,,,,,,,,0.2824985384941101,,,,,,
50849,105.0,,,,,,,,,,,,0.6878801584243774,,,,,,
50879,105.0,,,,,,,,0.0,0.0,0.0,0.0,,7.69614757700765e-07,16.659282684326172,1.8830305337905884,5.095259189605713,9.680992126464844,0.722113847732544
50880,,,7.73527062847279e-07,,,,,,,,,,,,,,,,
50899,106.0,,,,,,,,,,,,0.3220992982387543,,,,,,
50949,106.0,,,,,,,,,,,,0.22725529968738556,,,,,,
50999,106.0,,,,,,,,,,,,0.4854722023010254,,,,,,
51049,106.0,,,,,,,,,,,,0.31668269634246826,,,,,,
51099,106.0,,,,,,,,,,,,0.23114660382270813,,,,,,
51149,106.0,,,,,,,,,,,,0.43798795342445374,,,,,,
51199,106.0,,,,,,,,,,,,0.262053906917572,,,,,,
51249,106.0,,,,,,,,,,,,0.33444711565971375,,,,,,
51299,106.0,,,,,,,,,,,,0.43286192417144775,,,,,,
51349,106.0,,,,,,,,,,,,0.275461882352829,,,,,,
51359,106.0,,,,,,,,0.0,0.0,0.0,0.0,,7.73527062847279e-07,16.72574234008789,2.0602569580078125,5.383252143859863,9.282233238220215,0.7273654341697693
51360,,,7.774335699650692e-07,,,,,,,,,,,,,,,,
51399,107.0,,,,,,,,,,,,0.3989239037036896,,,,,,
51449,107.0,,,,,,,,,,,,0.4154055714607239,,,,,,
51499,107.0,,,,,,,,,,,,0.4811832904815674,,,,,,
51549,107.0,,,,,,,,,,,,0.2561973035335541,,,,,,
51599,107.0,,,,,,,,,,,,0.4135928452014923,,,,,,
51649,107.0,,,,,,,,,,,,0.47872960567474365,,,,,,
51699,107.0,,,,,,,,,,,,0.3679853081703186,,,,,,
51749,107.0,,,,,,,,,,,,0.31420594453811646,,,,,,
51799,107.0,,,,,,,,,,,,0.3599606156349182,,,,,,
51839,107.0,,,,,,,,0.0,0.0,0.0,0.0,,7.774335699650692e-07,16.614974975585938,2.0159504413604736,4.918032646179199,9.680992126464844,0.7144718766212463
51840,,,7.813333127160149e-07,,,,,,,,,,,,,,,,
51849,108.0,,,,,,,,,,,,0.2874356508255005,,,,,,
51899,108.0,,,,,,,,,,,,0.39412224292755127,,,,,,
51949,108.0,,,,,,,,,,,,0.3864782452583313,,,,,,
51999,108.0,,,,,,,,,,,,0.2058875560760498,,,,,,
52049,108.0,,,,,,,,,,,,0.3523487448692322,,,,,,
52099,108.0,,,,,,,,,,,,0.36139166355133057,,,,,,
52149,108.0,,,,,,,,,,,,0.4068191945552826,,,,,,
52199,108.0,,,,,,,,,,,,0.4366607367992401,,,,,,
52249,108.0,,,,,,,,,,,,0.19732271134853363,,,,,,
52299,108.0,,,,,,,,,,,,0.25454431772232056,,,,,,
52319,108.0,,,,,,,,0.0,0.0,0.0,0.0,,7.813333127160149e-07,16.83650779724121,2.0159504413604736,5.117412567138672,9.703145980834961,0.7228665351867676
52320,,,7.852253247619956e-07,,,,,,,,,,,,,,,,
52349,109.0,,,,,,,,,,,,0.24969077110290527,,,,,,
52399,109.0,,,,,,,,,,,,0.2697935104370117,,,,,,
52449,109.0,,,,,,,,,,,,0.43549787998199463,,,,,,
52499,109.0,,,,,,,,,,,,0.34112197160720825,,,,,,
52549,109.0,,,,,,,,,,,,0.36882227659225464,,,,,,
52599,109.0,,,,,,,,,,,,0.2718186378479004,,,,,,
52649,109.0,,,,,,,,,,,,0.34640124440193176,,,,,,
52699,109.0,,,,,,,,,,,,0.25874003767967224,,,,,,
52749,109.0,,,,,,,,,,,,0.31898730993270874,,,,,,
52799,109.0,,,,,,,,0.0,0.0,0.0,0.0,0.2621079087257385,7.852253247619956e-07,17.0801944732666,2.1045634746551514,5.228178977966309,9.747452735900879,0.7259842753410339
52800,,,7.891086397648905e-07,,,,,,,,,,,,,,,,
52849,110.0,,,,,,,,,,,,0.212816059589386,,,,,,
52899,110.0,,,,,,,,,,,,0.5021274089813232,,,,,,
52949,110.0,,,,,,,,,,,,0.324648916721344,,,,,,
52999,110.0,,,,,,,,,,,,0.34807366132736206,,,,,,
53049,110.0,,,,,,,,,,,,0.3308202028274536,,,,,,
53099,110.0,,,,,,,,,,,,0.3086998462677002,,,,,,
53149,110.0,,,,,,,,,,,,0.2850601077079773,,,,,,
53199,110.0,,,,,,,,,,,,0.30872565507888794,,,,,,
53249,110.0,,,,,,,,,,,,0.19026514887809753,,,,,,
53279,110.0,,,,,,,,0.0,0.0,0.0,0.0,,7.891086397648905e-07,16.947275161743164,2.0159504413604736,5.338945388793945,9.592379570007324,0.7186846137046814
53280,,,7.929822913865792e-07,,,,,,,,,,,,,,,,
53299,111.0,,,,,,,,,,,,0.24970954656600952,,,,,,
53349,111.0,,,,,,,,,,,,0.2723828852176666,,,,,,
53399,111.0,,,,,,,,,,,,0.4628223478794098,,,,,,
53449,111.0,,,,,,,,,,,,0.5024312734603882,,,,,,
53499,111.0,,,,,,,,,,,,0.5324804782867432,,,,,,
53549,111.0,,,,,,,,,,,,0.3755139112472534,,,,,,
53599,111.0,,,,,,,,,,,,0.25484567880630493,,,,,,
53649,111.0,,,,,,,,,,,,0.24695223569869995,,,,,,
53699,111.0,,,,,,,,,,,,0.23591268062591553,,,,,,
53749,111.0,,,,,,,,,,,,0.2674593925476074,,,,,,
53759,111.0,,,,,,,,0.0,0.0,0.0,0.0,,7.929822913865792e-07,16.526363372802734,2.1045634746551514,5.16171932220459,9.260079383850098,0.711148738861084
53760,,,7.968453132889408e-07,,,,,,,,,,,,,,,,
53799,112.0,,,,,,,,,,,,0.6090304255485535,,,,,,
53849,112.0,,,,,,,,,,,,0.3943689465522766,,,,,,
53899,112.0,,,,,,,,,,,,0.39760223031044006,,,,,,
53949,112.0,,,,,,,,,,,,0.36198902130126953,,,,,,
53999,112.0,,,,,,,,,,,,0.2617093324661255,,,,,,
54049,112.0,,,,,,,,,,,,0.5242171287536621,,,,,,
54099,112.0,,,,,,,,,,,,0.44028109312057495,,,,,,
54149,112.0,,,,,,,,,,,,0.4049312472343445,,,,,,
54199,112.0,,,,,,,,,,,,0.4687339663505554,,,,,,
54239,112.0,,,,,,,,0.0,0.0,0.0,0.0,,7.968453132889408e-07,16.681434631347656,1.9494904279708862,5.316792011260986,9.415152549743652,0.7187302112579346
54240,,,8.006967959772737e-07,,,,,,,,,,,,,,,,
54249,113.0,,,,,,,,,,,,0.38402223587036133,,,,,,
54299,113.0,,,,,,,,,,,,0.2326008677482605,,,,,,
54349,113.0,,,,,,,,,,,,0.35159948468208313,,,,,,
54399,113.0,,,,,,,,,,,,0.2291128933429718,,,,,,
54449,113.0,,,,,,,,,,,,0.2888656258583069,,,,,,
54499,113.0,,,,,,,,,,,,0.31652387976646423,,,,,,
54549,113.0,,,,,,,,,,,,0.27612149715423584,,,,,,
54599,113.0,,,,,,,,,,,,0.5390418767929077,,,,,,
54649,113.0,,,,,,,,,,,,0.44967788457870483,,,,,,
54699,113.0,,,,,,,,,,,,0.3671397268772125,,,,,,
54719,113.0,,,,,,,,0.0,0.0,0.0,0.0,,8.006967959772737e-07,16.37129020690918,1.9716438055038452,5.117412567138672,9.282233238220215,0.7056885957717896
54720,,,8.045358299568761e-07,,,,,,,,,,,,,,,,
54749,114.0,,,,,,,,,,,,0.3895243704319,,,,,,
54799,114.0,,,,,,,,,,,,0.33632469177246094,,,,,,
54849,114.0,,,,,,,,,,,,0.263534814119339,,,,,,
54899,114.0,,,,,,,,,,,,0.4770265817642212,,,,,,
54949,114.0,,,,,,,,,,,,0.3920851945877075,,,,,,
54999,114.0,,,,,,,,,,,,0.18521137535572052,,,,,,
55049,114.0,,,,,,,,,,,,0.33765774965286255,,,,,,
55099,114.0,,,,,,,,,,,,0.2956395447254181,,,,,,
55149,114.0,,,,,,,,,,,,0.28441178798675537,,,,,,
55199,114.0,,,,,,,,0.0,0.0,0.0,0.0,0.3139042854309082,8.045358299568761e-07,16.814355850219727,1.9937970638275146,5.095259189605713,9.725298881530762,0.7226854562759399
55200,,,8.083613352027896e-07,,,,,,,,,,,,,,,,
55249,115.0,,,,,,,,,,,,0.2935147285461426,,,,,,
55299,115.0,,,,,,,,,,,,0.3313126862049103,,,,,,
55349,115.0,,,,,,,,,,,,0.39023709297180176,,,,,,
55399,115.0,,,,,,,,,,,,0.5065990686416626,,,,,,
55449,115.0,,,,,,,,,,,,0.32466021180152893,,,,,,
55499,115.0,,,,,,,,,,,,0.41207659244537354,,,,,,
55549,115.0,,,,,,,,,,,,0.318215548992157,,,,,,
55599,115.0,,,,,,,,,,,,0.27392029762268066,,,,,,
55649,115.0,,,,,,,,,,,,0.34935539960861206,,,,,,
55679,115.0,,,,,,,,0.0,0.0,0.0,0.0,,8.083613352027896e-07,16.526363372802734,1.9051839113235474,5.095259189605713,9.525918960571289,0.7162657380104065
55680,,,8.121724590637314e-07,,,,,,,,,,,,,,,,
55699,116.0,,,,,,,,,,,,0.26610809564590454,,,,,,
55749,116.0,,,,,,,,,,,,0.2739450931549072,,,,,,
55799,116.0,,,,,,,,,,,,0.20324218273162842,,,,,,
55849,116.0,,,,,,,,,,,,0.27238360047340393,,,,,,
55899,116.0,,,,,,,,,,,,0.3056854009628296,,,,,,
55949,116.0,,,,,,,,,,,,0.2322295904159546,,,,,,
55999,116.0,,,,,,,,,,,,0.2948055565357208,,,,,,
56049,116.0,,,,,,,,,,,,0.3700576722621918,,,,,,
56099,116.0,,,,,,,,,,,,0.3873126804828644,,,,,,
56149,116.0,,,,,,,,,,,,0.3792368769645691,,,,,,
56159,116.0,,,,,,,,0.0,0.0,0.0,0.0,,8.121724590637314e-07,16.4377498626709,2.0824103355407715,4.918032646179199,9.43730640411377,0.7244782447814941
56160,,,8.159682352015807e-07,,,,,,,,,,,,,,,,
56199,117.0,,,,,,,,,,,,0.30942046642303467,,,,,,
56249,117.0,,,,,,,,,,,,0.30618226528167725,,,,,,
56299,117.0,,,,,,,,,,,,0.2681541442871094,,,,,,
56349,117.0,,,,,,,,,,,,0.41830259561538696,,,,,,
56399,117.0,,,,,,,,,,,,0.23081231117248535,,,,,,
56449,117.0,,,,,,,,,,,,0.2647658586502075,,,,,,
56499,117.0,,,,,,,,,,,,0.24902328848838806,,,,,,
56549,117.0,,,,,,,,,,,,0.19061100482940674,,,,,,
56599,117.0,,,,,,,,,,,,0.3540061116218567,,,,,,
56639,117.0,,,,,,,,0.0,0.0,0.0,0.0,,8.159682352015807e-07,16.858661651611328,2.0824103355407715,5.050952434539795,9.725298881530762,0.7249584197998047
56640,,,8.197477541216358e-07,,,,,,,,,,,,,,,,
56649,118.0,,,,,,,,,,,,0.24415777623653412,,,,,,
56699,118.0,,,,,,,,,,,,0.3107602298259735,,,,,,
56749,118.0,,,,,,,,,,,,0.20684930682182312,,,,,,
56799,118.0,,,,,,,,,,,,0.1720772087574005,,,,,,
56849,118.0,,,,,,,,,,,,0.37708529829978943,,,,,,
56899,118.0,,,,,,,,,,,,0.3392528295516968,,,,,,
56949,118.0,,,,,,,,,,,,0.42446982860565186,,,,,,
56999,118.0,,,,,,,,,,,,0.30108341574668884,,,,,,
57049,118.0,,,,,,,,,,,,0.3474586308002472,,,,,,
57099,118.0,,,,,,,,,,,,0.2054363340139389,,,,,,
57119,118.0,,,,,,,,0.0,0.0,0.0,0.0,,8.197477541216358e-07,16.814355850219727,2.0824103355407715,5.183872222900391,9.548072814941406,0.7242510914802551
57120,,,8.23510106329195e-07,,,,,,,,,,,,,,,,
57149,119.0,,,,,,,,,,,,0.4780356287956238,,,,,,
57199,119.0,,,,,,,,,,,,0.35534119606018066,,,,,,
57249,119.0,,,,,,,,,,,,0.38526320457458496,,,,,,
57299,119.0,,,,,,,,,,,,0.3168168067932129,,,,,,
57349,119.0,,,,,,,,,,,,0.36989885568618774,,,,,,
57399,119.0,,,,,,,,,,,,0.4209001064300537,,,,,,
57449,119.0,,,,,,,,,,,,0.3545994162559509,,,,,,
57499,119.0,,,,,,,,,,,,0.20891714096069336,,,,,,
57549,119.0,,,,,,,,,,,,0.47815564274787903,,,,,,
57599,119.0,,,,,,,,0.0,0.0,0.0,0.0,0.1696416735649109,8.23510106329195e-07,16.459901809692383,2.0381035804748535,5.117412567138672,9.304386138916016,0.7147067785263062
57600,,,8.272542686427187e-07,,,,,,,,,,,,,,,,
57649,120.0,,,,,,,,,,,,0.29994696378707886,,,,,,
57699,120.0,,,,,,,,,,,,0.3051629066467285,,,,,,
57749,120.0,,,,,,,,,,,,0.3109423518180847,,,,,,
57799,120.0,,,,,,,,,,,,0.3653067350387573,,,,,,
57849,120.0,,,,,,,,,,,,0.33886265754699707,,,,,,
57899,120.0,,,,,,,,,,,,0.5280384421348572,,,,,,
57949,120.0,,,,,,,,,,,,0.35861366987228394,,,,,,
57999,120.0,,,,,,,,,,,,0.37755900621414185,,,,,,
58049,120.0,,,,,,,,,,,,0.3599691092967987,,,,,,
58079,120.0,,,,,,,,0.0,0.0,0.0,0.0,,8.272542686427187e-07,16.902969360351562,2.193176746368408,4.940186023712158,9.76960563659668,0.7281935811042786
58080,,,8.309793315675051e-07,,,,,,,,,,,,,,,,
58099,121.0,,,,,,,,,,,,0.37333226203918457,,,,,,
58149,121.0,,,,,,,,,,,,0.26995712518692017,,,,,,
58199,121.0,,,,,,,,,,,,0.3367389440536499,,,,,,
58249,121.0,,,,,,,,,,,,0.293210506439209,,,,,,
58299,121.0,,,,,,,,,,,,0.43446624279022217,,,,,,
58349,121.0,,,,,,,,,,,,0.25056523084640503,,,,,,
58399,121.0,,,,,,,,,,,,0.22991842031478882,,,,,,
58449,121.0,,,,,,,,,,,,0.3084266185760498,,,,,,
58499,121.0,,,,,,,,,,,,0.5438908338546753,,,,,,
58549,121.0,,,,,,,,,,,,0.36034518480300903,,,,,,
58559,121.0,,,,,,,,0.0,0.0,0.0,0.0,,8.309793315675051e-07,16.681434631347656,2.0381035804748535,5.050952434539795,9.592379570007324,0.7263283133506775
58560,,,8.346844992956903e-07,,,,,,,,,,,,,,,,
58599,122.0,,,,,,,,,,,,0.5415042638778687,,,,,,
58649,122.0,,,,,,,,,,,,0.5048149824142456,,,,,,
58699,122.0,,,,,,,,,,,,0.37964576482772827,,,,,,
58749,122.0,,,,,,,,,,,,0.33546018600463867,,,,,,
58799,122.0,,,,,,,,,,,,0.3780868649482727,,,,,,
58849,122.0,,,,,,,,,,,,0.38015103340148926,,,,,,
58899,122.0,,,,,,,,,,,,0.1855044960975647,,,,,,
58949,122.0,,,,,,,,,,,,0.2609088122844696,,,,,,
58999,122.0,,,,,,,,,,,,0.39779067039489746,,,,,,
59039,122.0,,,,,,,,0.0,0.0,0.0,0.0,,8.346844992956903e-07,16.570669174194336,1.9937970638275146,5.095259189605713,9.481613159179688,0.7272693514823914
59040,,,8.383686918023159e-07,,,,,,,,,,,,,,,,
59049,123.0,,,,,,,,,,,,0.3183131814002991,,,,,,
59099,123.0,,,,,,,,,,,,0.2401779443025589,,,,,,
59149,123.0,,,,,,,,,,,,0.3588918447494507,,,,,,
59199,123.0,,,,,,,,,,,,0.3933032155036926,,,,,,
59249,123.0,,,,,,,,,,,,0.4099069833755493,,,,,,
59299,123.0,,,,,,,,,,,,0.413569837808609,,,,,,
59349,123.0,,,,,,,,,,,,0.1917993724346161,,,,,,
59399,123.0,,,,,,,,,,,,0.21074043214321136,,,,,,
59449,123.0,,,,,,,,,,,,0.4018552005290985,,,,,,
59499,123.0,,,,,,,,,,,,0.4202379584312439,,,,,,
59519,123.0,,,,,,,,0.0,0.0,0.0,0.0,,8.383686918023159e-07,16.747896194458008,2.1045634746551514,5.073105812072754,9.570225715637207,0.7254348397254944
59520,,,8.420311132795177e-07,,,,,,,,,,,,,,,,
59549,124.0,,,,,,,,,,,,0.33182549476623535,,,,,,
59599,124.0,,,,,,,,,,,,0.2840343713760376,,,,,,
59649,124.0,,,,,,,,,,,,0.3282637298107147,,,,,,
59699,124.0,,,,,,,,,,,,0.367217481136322,,,,,,
59749,124.0,,,,,,,,,,,,0.21686412394046783,,,,,,
59799,124.0,,,,,,,,,,,,0.28444963693618774,,,,,,
59849,124.0,,,,,,,,,,,,0.30494049191474915,,,,,,
59899,124.0,,,,,,,,,,,,0.2083682119846344,,,,,,
59949,124.0,,,,,,,,,,,,0.33441421389579773,,,,,,
59999,124.0,,,,,,,,0.0,0.0,0.0,0.0,0.8869654536247253,8.420311132795177e-07,16.54851531982422,1.860877275466919,5.316792011260986,9.370845794677734,0.7200616598129272
60000,,,8.456708542325941e-07,,,,,,,,,,,,,,,,
60049,125.0,,,,,,,,,,,,0.2515098750591278,,,,,,
60099,125.0,,,,,,,,,,,,0.30788737535476685,,,,,,
60149,125.0,,,,,,,,,,,,0.5104859471321106,,,,,,
60199,125.0,,,,,,,,,,,,0.3549082577228546,,,,,,
60249,125.0,,,,,,,,,,,,0.2719436287879944,,,,,,
60299,125.0,,,,,,,,,,,,0.28970226645469666,,,,,,
60349,125.0,,,,,,,,,,,,0.2950308322906494,,,,,,
60399,125.0,,,,,,,,,,,,0.19211673736572266,,,,,,
60449,125.0,,,,,,,,,,,,0.2669174075126648,,,,,,
60479,125.0,,,,,,,,0.0,0.0,0.0,0.0,,8.456708542325941e-07,17.124502182006836,2.237483501434326,5.20602560043335,9.680992126464844,0.7230108976364136
60480,,,8.492869483234244e-07,,,,,,,,,,,,,,,,
60499,126.0,,,,,,,,,,,,0.32001635432243347,,,,,,
60549,126.0,,,,,,,,,,,,0.35063591599464417,,,,,,
60599,126.0,,,,,,,,,,,,0.30395764112472534,,,,,,
60649,126.0,,,,,,,,,,,,0.31073904037475586,,,,,,
60699,126.0,,,,,,,,,,,,0.4800207018852234,,,,,,
60749,126.0,,,,,,,,,,,,0.2516075670719147,,,,,,
60799,126.0,,,,,,,,,,,,0.4551951289176941,,,,,,
60849,126.0,,,,,,,,,,,,0.3069302439689636,,,,,,
60899,126.0,,,,,,,,,,,,0.2461109757423401,,,,,,
60949,126.0,,,,,,,,,,,,0.25155559182167053,,,,,,
60959,126.0,,,,,,,,0.0,0.0,0.0,0.0,,8.492869483234244e-07,16.637128829956055,2.0824103355407715,5.006646156311035,9.548072814941406,0.7247614860534668
60960,,,8.528785997441446e-07,,,,,,,,,,,,,,,,
60999,127.0,,,,,,,,,,,,0.3044360280036926,,,,,,
61049,127.0,,,,,,,,,,,,0.29358598589897156,,,,,,
61099,127.0,,,,,,,,,,,,0.46307048201560974,,,,,,
61149,127.0,,,,,,,,,,,,0.4328502416610718,,,,,,
61199,127.0,,,,,,,,,,,,0.2691885828971863,,,,,,
61249,127.0,,,,,,,,,,,,0.35058486461639404,,,,,,
61299,127.0,,,,,,,,,,,,0.2720176577568054,,,,,,
61349,127.0,,,,,,,,,,,,0.3542056679725647,,,,,,
61399,127.0,,,,,,,,,,,,0.3733768165111542,,,,,,
61439,127.0,,,,,,,,0.0,0.0,0.0,0.0,,8.528785997441446e-07,16.570669174194336,1.9937970638275146,5.139565944671631,9.43730640411377,0.7336441874504089
61440,,,8.56444842156634e-07,,,,,,,,,,,,,,,,
61449,128.0,,,,,,,,,,,,0.2767305374145508,,,,,,
61499,128.0,,,,,,,,,,,,0.31746920943260193,,,,,,
61549,128.0,,,,,,,,,,,,0.41203051805496216,,,,,,
61599,128.0,,,,,,,,,,,,0.31012022495269775,,,,,,
61649,128.0,,,,,,,,,,,,0.3843289017677307,,,,,,
61699,128.0,,,,,,,,,,,,0.4309638738632202,,,,,,
61749,128.0,,,,,,,,,,,,0.247468963265419,,,,,,
61799,128.0,,,,,,,,,,,,0.3590203821659088,,,,,,
61849,128.0,,,,,,,,,,,,0.3578716516494751,,,,,,
61899,128.0,,,,,,,,,,,,0.2638548016548157,,,,,,
61919,128.0,,,,,,,,0.0,0.0,0.0,0.0,,8.56444842156634e-07,16.326982498168945,1.8387240171432495,5.028799057006836,9.45945930480957,0.7287929058074951
61920,,,8.599847660661908e-07,,,,,,,,,,,,,,,,
61949,129.0,,,,,,,,,,,,0.3183811902999878,,,,,,
61999,129.0,,,,,,,,,,,,0.5779811143875122,,,,,,
62049,129.0,,,,,,,,,,,,0.5291082262992859,,,,,,
62099,129.0,,,,,,,,,,,,0.368502676486969,,,,,,
62149,129.0,,,,,,,,,,,,0.5290203094482422,,,,,,
62199,129.0,,,,,,,,,,,,0.32232755422592163,,,,,,
62249,129.0,,,,,,,,,,,,0.20590530335903168,,,,,,
62299,129.0,,,,,,,,,,,,0.264810711145401,,,,,,
62349,129.0,,,,,,,,,,,,0.355442076921463,,,,,,
62399,129.0,,,,,,,,0.0,0.0,0.0,0.0,0.1454489380121231,8.599847660661908e-07,16.681434631347656,1.9716438055038452,5.073105812072754,9.636686325073242,0.7295514941215515
62400,,,8.634976325083699e-07,,,,,,,,,,,,,,,,
62449,130.0,,,,,,,,,,,,0.3207414150238037,,,,,,
62499,130.0,,,,,,,,,,,,0.3251289129257202,,,,,,
62549,130.0,,,,,,,,,,,,0.3519916832447052,,,,,,
62599,130.0,,,,,,,,,,,,0.39072275161743164,,,,,,
62649,130.0,,,,,,,,,,,,0.2984802722930908,,,,,,
62699,130.0,,,,,,,,,,,,0.3233112692832947,,,,,,
62749,130.0,,,,,,,,,,,,0.3047340512275696,,,,,,
62799,130.0,,,,,,,,,,,,0.4374408423900604,,,,,,
62849,130.0,,,,,,,,,,,,0.3834484815597534,,,,,,
62879,130.0,,,,,,,,0.0,0.0,0.0,0.0,,8.634976325083699e-07,16.747896194458008,2.0159504413604736,5.20602560043335,9.525918960571289,0.7230010032653809
62880,,,8.669824751450506e-07,,,,,,,,,,,,,,,,
62899,131.0,,,,,,,,,,,,0.2409559190273285,,,,,,
62949,131.0,,,,,,,,,,,,0.33975809812545776,,,,,,
62999,131.0,,,,,,,,,,,,0.3796663284301758,,,,,,
63049,131.0,,,,,,,,,,,,0.26843565702438354,,,,,,
63099,131.0,,,,,,,,,,,,0.22040292620658875,,,,,,
63149,131.0,,,,,,,,,,,,0.3315126299858093,,,,,,
63199,131.0,,,,,,,,,,,,0.38806283473968506,,,,,,
63249,131.0,,,,,,,,,,,,0.5404767990112305,,,,,,
63299,131.0,,,,,,,,,,,,0.4409548044204712,,,,,,
63349,131.0,,,,,,,,,,,,0.32844680547714233,,,,,,
63359,131.0,,,,,,,,0.0,0.0,0.0,0.0,,8.669824751450506e-07,16.393442153930664,2.1267168521881104,4.962339401245117,9.304386138916016,0.7297475337982178
63360,,,8.7043844132495e-07,,,,,,,,,,,,,,,,
63399,132.0,,,,,,,,,,,,0.33835405111312866,,,,,,
63449,132.0,,,,,,,,,,,,0.18620586395263672,,,,,,
63499,132.0,,,,,,,,,,,,0.4278239607810974,,,,,,
63549,132.0,,,,,,,,,,,,0.2341994196176529,,,,,,
63599,132.0,,,,,,,,,,,,0.2633494734764099,,,,,,
63649,132.0,,,,,,,,,,,,0.43103182315826416,,,,,,
63699,132.0,,,,,,,,,,,,0.3024168014526367,,,,,,
63749,132.0,,,,,,,,,,,,0.39440351724624634,,,,,,
63799,132.0,,,,,,,,,,,,0.22735261917114258,,,,,,
63839,132.0,,,,,,,,0.0,0.0,0.0,0.0,,8.7043844132495e-07,16.72574234008789,2.0381035804748535,4.962339401245117,9.725298881530762,0.7326046228408813
63840,,,8.738646783967852e-07,,,,,,,,,,,,,,,,
63849,133.0,,,,,,,,,,,,0.3600248694419861,,,,,,
63899,133.0,,,,,,,,,,,,0.39043575525283813,,,,,,
63949,133.0,,,,,,,,,,,,0.26345378160476685,,,,,,
63999,133.0,,,,,,,,,,,,0.42488712072372437,,,,,,
64049,133.0,,,,,,,,,,,,0.4252268075942993,,,,,,
64099,133.0,,,,,,,,,,,,0.3408352732658386,,,,,,
64149,133.0,,,,,,,,,,,,0.3447710871696472,,,,,,
64199,133.0,,,,,,,,,,,,0.2136918604373932,,,,,,
64249,133.0,,,,,,,,,,,,0.3603026270866394,,,,,,
64299,133.0,,,,,,,,,,,,0.3412972092628479,,,,,,
64319,133.0,,,,,,,,0.0,0.0,0.0,0.0,,8.738646783967852e-07,16.592823028564453,1.9273371696472168,5.006646156311035,9.658839225769043,0.7315724492073059
64320,,,8.772603337092733e-07,,,,,,,,,,,,,,,,
64349,134.0,,,,,,,,,,,,0.4821290671825409,,,,,,
64399,134.0,,,,,,,,,,,,0.22393381595611572,,,,,,
64449,134.0,,,,,,,,,,,,0.35236606001853943,,,,,,
64499,134.0,,,,,,,,,,,,0.24595127999782562,,,,,,
64549,134.0,,,,,,,,,,,,0.4116889238357544,,,,,,
64599,134.0,,,,,,,,,,,,0.37564998865127563,,,,,,
64649,134.0,,,,,,,,,,,,0.5076286792755127,,,,,,
64699,134.0,,,,,,,,,,,,0.37533140182495117,,,,,,
64749,134.0,,,,,,,,,,,,0.33116763830184937,,,,,,
64799,134.0,,,,,,,,0.0,0.0,0.0,0.0,0.9963182210922241,8.772603337092733e-07,17.013734817504883,2.281790018081665,5.073105812072754,9.658839225769043,0.7346964478492737
64800,,,8.80624668297969e-07,,,,,,,,,,,,,,,,
64849,135.0,,,,,,,,,,,,0.4473510682582855,,,,,,
64899,135.0,,,,,,,,,,,,0.5208597779273987,,,,,,
64949,135.0,,,,,,,,,,,,0.3129344582557678,,,,,,
64999,135.0,,,,,,,,,,,,0.36874228715896606,,,,,,
65049,135.0,,,,,,,,,,,,0.35791265964508057,,,,,,
65099,135.0,,,,,,,,,,,,0.28745192289352417,,,,,,
65149,135.0,,,,,,,,,,,,0.516327440738678,,,,,,
65199,135.0,,,,,,,,,,,,0.431730717420578,,,,,,
65249,135.0,,,,,,,,,,,,0.3977985978126526,,,,,,
65279,135.0,,,,,,,,0.0,0.0,0.0,0.0,,8.80624668297969e-07,16.349136352539062,1.860877275466919,4.940186023712158,9.548072814941406,0.7225143909454346
65280,,,8.839567158247519e-07,,,,,,,,,,,,,,,,
65299,136.0,,,,,,,,,,,,0.377186119556427,,,,,,
65349,136.0,,,,,,,,,,,,0.4156494438648224,,,,,,
65399,136.0,,,,,,,,,,,,0.3005889058113098,,,,,,
65449,136.0,,,,,,,,,,,,0.24406525492668152,,,,,,
65499,136.0,,,,,,,,,,,,0.40526145696640015,,,,,,
65549,136.0,,,,,,,,,,,,0.2840501368045807,,,,,,
65599,136.0,,,,,,,,,,,,0.28174054622650146,,,,,,
65649,136.0,,,,,,,,,,,,0.4411122500896454,,,,,,
65699,136.0,,,,,,,,,,,,0.360885351896286,,,,,,
65749,136.0,,,,,,,,,,,,0.2561977803707123,,,,,,
65759,136.0,,,,,,,,0.0,0.0,0.0,0.0,,8.839567158247519e-07,16.4820556640625,1.8830305337905884,4.8737263679504395,9.725298881530762,0.7160844802856445
65760,,,8.872556804817577e-07,,,,,,,,,,,,,,,,
65799,137.0,,,,,,,,,,,,0.27533477544784546,,,,,,
65849,137.0,,,,,,,,,,,,0.22319869697093964,,,,,,
65899,137.0,,,,,,,,,,,,0.43367987871170044,,,,,,
65949,137.0,,,,,,,,,,,,0.34150972962379456,,,,,,
65999,137.0,,,,,,,,,,,,0.3933402895927429,,,,,,
66049,137.0,,,,,,,,,,,,0.21991294622421265,,,,,,
66099,137.0,,,,,,,,,,,,0.3288803994655609,,,,,,
66149,137.0,,,,,,,,,,,,0.5063323974609375,,,,,,
66199,137.0,,,,,,,,,,,,0.17852288484573364,,,,,,
66239,137.0,,,,,,,,0.0,0.0,0.0,0.0,,8.872556804817577e-07,16.681434631347656,1.8830305337905884,5.228178977966309,9.570225715637207,0.7231895327568054
66240,,,8.905208233045414e-07,,,,,,,,,,,,,,,,
66249,138.0,,,,,,,,,,,,0.2876747250556946,,,,,,
66299,138.0,,,,,,,,,,,,0.38229674100875854,,,,,,
66349,138.0,,,,,,,,,,,,0.38164886832237244,,,,,,
66399,138.0,,,,,,,,,,,,0.2639327645301819,,,,,,
66449,138.0,,,,,,,,,,,,0.17741352319717407,,,,,,
66499,138.0,,,,,,,,,,,,0.4408718943595886,,,,,,
66549,138.0,,,,,,,,,,,,0.3533911108970642,,,,,,
66599,138.0,,,,,,,,,,,,0.3104778230190277,,,,,,
66649,138.0,,,,,,,,,,,,0.3926490545272827,,,,,,
66699,138.0,,,,,,,,,,,,0.4447205364704132,,,,,,
66719,138.0,,,,,,,,0.0,0.0,0.0,0.0,,8.905208233045414e-07,16.592823028564453,1.9716438055038452,5.16171932220459,9.45945930480957,0.7294838428497314
66720,,,8.9375129164182e-07,,,,,,,,,,,,,,,,
66749,139.0,,,,,,,,,,,,0.26621150970458984,,,,,,
66799,139.0,,,,,,,,,,,,0.43281859159469604,,,,,,
66849,139.0,,,,,,,,,,,,0.16512271761894226,,,,,,
66899,139.0,,,,,,,,,,,,0.5323967933654785,,,,,,
66949,139.0,,,,,,,,,,,,0.3257281482219696,,,,,,
66999,139.0,,,,,,,,,,,,0.40049707889556885,,,,,,
67049,139.0,,,,,,,,,,,,0.2611440420150757,,,,,,
67099,139.0,,,,,,,,,,,,0.6199131011962891,,,,,,
67149,139.0,,,,,,,,,,,,0.28487926721572876,,,,,,
67199,139.0,,,,,,,,0.0,0.0,0.0,0.0,0.18354003131389618,8.9375129164182e-07,16.858661651611328,1.9716438055038452,5.250332355499268,9.636686325073242,0.7264634966850281
67200,,,8.969462896857294e-07,,,,,,,,,,,,,,,,
67249,140.0,,,,,,,,,,,,0.26247817277908325,,,,,,
67299,140.0,,,,,,,,,,,,0.3965906500816345,,,,,,
67349,140.0,,,,,,,,,,,,0.2426333725452423,,,,,,
67399,140.0,,,,,,,,,,,,0.2112945020198822,,,,,,
67449,140.0,,,,,,,,,,,,0.2734885513782501,,,,,,
67499,140.0,,,,,,,,,,,,0.398507297039032,,,,,,
67549,140.0,,,,,,,,,,,,0.31650856137275696,,,,,,
67599,140.0,,,,,,,,,,,,0.33358079195022583,,,,,,
67649,140.0,,,,,,,,,,,,0.31197595596313477,,,,,,
67679,140.0,,,,,,,,0.0,0.0,0.0,0.0,,8.969462896857294e-07,16.637128829956055,1.9494904279708862,5.050952434539795,9.636686325073242,0.7271572351455688
67680,,,9.001050784718245e-07,,,,,,,,,,,,,,,,
67699,141.0,,,,,,,,,,,,0.28166890144348145,,,,,,
67749,141.0,,,,,,,,,,,,0.4392603635787964,,,,,,
67799,141.0,,,,,,,,,,,,0.3736693561077118,,,,,,
67849,141.0,,,,,,,,,,,,0.21175555884838104,,,,,,
67899,141.0,,,,,,,,,,,,0.31952834129333496,,,,,,
67949,141.0,,,,,,,,,,,,0.31418663263320923,,,,,,
67999,141.0,,,,,,,,,,,,0.3686213493347168,,,,,,
68049,141.0,,,,,,,,,,,,0.3254193663597107,,,,,,
68099,141.0,,,,,,,,,,,,0.26856744289398193,,,,,,
68149,141.0,,,,,,,,,,,,0.3482736051082611,,,,,,
68159,141.0,,,,,,,,0.0,0.0,0.0,0.0,,9.001050784718245e-07,16.4820556640625,2.0381035804748535,4.984492778778076,9.45945930480957,0.7176669239997864
68160,,,9.032267485054035e-07,,,,,,,,,,,,,,,,
68199,142.0,,,,,,,,,,,,0.29840487241744995,,,,,,
68249,142.0,,,,,,,,,,,,0.2391354888677597,,,,,,
68299,142.0,,,,,,,,,,,,0.24702906608581543,,,,,,
68349,142.0,,,,,,,,,,,,0.3809221386909485,,,,,,
68399,142.0,,,,,,,,,,,,0.47964105010032654,,,,,,
68449,142.0,,,,,,,,,,,,0.4685852825641632,,,,,,
68499,142.0,,,,,,,,,,,,0.3666956424713135,,,,,,
68549,142.0,,,,,,,,,,,,0.2780609726905823,,,,,,
68599,142.0,,,,,,,,,,,,0.44424569606781006,,,,,,
68639,142.0,,,,,,,,0.0,0.0,0.0,0.0,,9.032267485054035e-07,16.947275161743164,2.0159504413604736,5.050952434539795,9.880372047424316,0.7173428535461426
68640,,,9.063106745088589e-07,,,,,,,,,,,,,,,,
68649,143.0,,,,,,,,,,,,0.44113895297050476,,,,,,
68699,143.0,,,,,,,,,,,,0.4078867435455322,,,,,,
68749,143.0,,,,,,,,,,,,0.20581525564193726,,,,,,
68799,143.0,,,,,,,,,,,,0.3087955117225647,,,,,,
68849,143.0,,,,,,,,,,,,0.5312447547912598,,,,,,
68899,143.0,,,,,,,,,,,,0.2786663770675659,,,,,,
68949,143.0,,,,,,,,,,,,0.3461740016937256,,,,,,
68999,143.0,,,,,,,,,,,,0.5481842756271362,,,,,,
69049,143.0,,,,,,,,,,,,0.5118963122367859,,,,,,
69099,143.0,,,,,,,,,,,,0.346351683139801,,,,,,
69119,143.0,,,,,,,,0.0,0.0,0.0,0.0,,9.063106745088589e-07,16.858661651611328,2.1267168521881104,5.139565944671631,9.592379570007324,0.7200177311897278
69120,,,9.093560038309079e-07,,,,,,,,,,,,,,,,
69149,144.0,,,,,,,,,,,,0.2291942536830902,,,,,,
69199,144.0,,,,,,,,,,,,0.4602173864841461,,,,,,
69249,144.0,,,,,,,,,,,,0.2334657460451126,,,,,,
69299,144.0,,,,,,,,,,,,0.3631211817264557,,,,,,
69349,144.0,,,,,,,,,,,,0.2670212984085083,,,,,,
69399,144.0,,,,,,,,,,,,0.25878554582595825,,,,,,
69449,144.0,,,,,,,,,,,,0.4161311984062195,,,,,,
69499,144.0,,,,,,,,,,,,0.2940021753311157,,,,,,
69549,144.0,,,,,,,,,,,,0.44239842891693115,,,,,,
69599,144.0,,,,,,,,0.0,0.0,0.0,0.0,0.1792760193347931,9.093560038309079e-07,16.504209518432617,1.8165706396102905,5.20602560043335,9.481613159179688,0.7150694727897644
69600,,,9.123619975071051e-07,,,,,,,,,,,,,,,,
69649,145.0,,,,,,,,,,,,0.24633339047431946,,,,,,
69699,145.0,,,,,,,,,,,,0.42020317912101746,,,,,,
69749,145.0,,,,,,,,,,,,0.5105725526809692,,,,,,
69799,145.0,,,,,,,,,,,,0.46449124813079834,,,,,,
69849,145.0,,,,,,,,,,,,0.27101200819015503,,,,,,
69899,145.0,,,,,,,,,,,,0.2998164892196655,,,,,,
69949,145.0,,,,,,,,,,,,0.2249811291694641,,,,,,
69999,145.0,,,,,,,,,,,,0.49602290987968445,,,,,,
70049,145.0,,,,,,,,,,,,0.45478683710098267,,,,,,
70079,145.0,,,,,,,,0.0,0.0,0.0,0.0,,9.123619975071051e-07,16.72574234008789,2.193176746368408,5.095259189605713,9.43730640411377,0.7204195857048035
70080,,,9.153279734164244e-07,,,,,,,,,,,,,,,,
70099,146.0,,,,,,,,,,,,0.2785778343677521,,,,,,
70149,146.0,,,,,,,,,,,,0.239940345287323,,,,,,
70199,146.0,,,,,,,,,,,,0.28630292415618896,,,,,,
70249,146.0,,,,,,,,,,,,0.2300790399312973,,,,,,
70299,146.0,,,,,,,,,,,,0.3081526756286621,,,,,,
70349,146.0,,,,,,,,,,,,0.23166504502296448,,,,,,
70399,146.0,,,,,,,,,,,,0.3501802682876587,,,,,,
70449,146.0,,,,,,,,,,,,0.35901740193367004,,,,,,
70499,146.0,,,,,,,,,,,,0.3035164475440979,,,,,,
70549,146.0,,,,,,,,,,,,0.3124921917915344,,,,,,
70559,146.0,,,,,,,,0.0,0.0,0.0,0.0,,9.153279734164244e-07,16.526363372802734,2.1045634746551514,5.028799057006836,9.392999649047852,0.7233893275260925
70560,,,9.182531357510015e-07,,,,,,,,,,,,,,,,
70599,147.0,,,,,,,,,,,,0.24744534492492676,,,,,,
70649,147.0,,,,,,,,,,,,0.26913022994995117,,,,,,
70699,147.0,,,,,,,,,,,,0.2633473873138428,,,,,,
70749,147.0,,,,,,,,,,,,0.28215718269348145,,,,,,
70799,147.0,,,,,,,,,,,,0.3703725039958954,,,,,,
70849,147.0,,,,,,,,,,,,0.30936968326568604,,,,,,
70899,147.0,,,,,,,,,,,,0.5096194744110107,,,,,,
70949,147.0,,,,,,,,,,,,0.19191130995750427,,,,,,
70999,147.0,,,,,,,,,,,,0.4074065387248993,,,,,,
71039,147.0,,,,,,,,0.0,0.0,0.0,0.0,,9.182531357510015e-07,16.72574234008789,2.1488702297210693,5.095259189605713,9.481613159179688,0.7196442484855652
71040,,,9.211368023898103e-07,,,,,,,,,,,,,,,,
71049,148.0,,,,,,,,,,,,0.4212297797203064,,,,,,
71099,148.0,,,,,,,,,,,,0.4998161792755127,,,,,,
71149,148.0,,,,,,,,,,,,0.2794761061668396,,,,,,
71199,148.0,,,,,,,,,,,,0.37123343348503113,,,,,,
71249,148.0,,,,,,,,,,,,0.27892133593559265,,,,,,
71299,148.0,,,,,,,,,,,,0.2721312642097473,,,,,,
71349,148.0,,,,,,,,,,,,0.1945353001356125,,,,,,
71399,148.0,,,,,,,,,,,,0.18619434535503387,,,,,,
71449,148.0,,,,,,,,,,,,0.33097851276397705,,,,,,
71499,148.0,,,,,,,,,,,,0.46936100721359253,,,,,,
71519,148.0,,,,,,,,0.0,0.0,0.0,0.0,,9.211368023898103e-07,16.880815505981445,2.1267168521881104,5.272485733032227,9.481613159179688,0.7227764129638672
71520,,,9.239781775249867e-07,,,,,,,,,,,,,,,,
71549,149.0,,,,,,,,,,,,0.33200308680534363,,,,,,
71599,149.0,,,,,,,,,,,,0.28248682618141174,,,,,,
71649,149.0,,,,,,,,,,,,0.3467988073825836,,,,,,
71699,149.0,,,,,,,,,,,,0.23817840218544006,,,,,,
71749,149.0,,,,,,,,,,,,0.23386788368225098,,,,,,
71799,149.0,,,,,,,,,,,,0.4004431962966919,,,,,,
71819,149.0,,,76.24810791015625,0.043224550783634186,73.65463256835938,2.550248622894287,4.129683971405029,,,,,,,16.326982498168945,1.8387240171432495,5.028799057006836,9.45945930480957,0.7287929058074951
