step,epoch,hp_metric,lr-Adam,train/CER,train/DER,train/IER,train/SER,train/loss,train/lr,val/CER,val/DER,val/IER,val/SER,val/loss
0,,-1.0,9.99999993922529e-09,,,,,,,,,,,
49,0.0,,,,,,,128.24725341796875,,,,,,
99,0.0,,,,,,,141.97613525390625,,,,,,
149,0.0,,,,,,,187.66622924804688,,,,,,
199,0.0,,,,,,,147.41241455078125,,,,,,
249,0.0,,,,,,,158.13299560546875,,,,,,
299,0.0,,,,,,,174.93344116210938,,,,,,
349,0.0,,,,,,,144.76683044433594,,,,,,
399,0.0,,,,,,,169.8472442626953,,,,,,
449,0.0,,,,,,,156.79942321777344,,,,,,
479,0.0,,,0.0,0.0,0.0,0.0,,9.99999993922529e-09,1281.19189453125,1216.9029541015625,0.0,64.28887939453125,133.12672424316406
480,,,5.564444563788129e-06,,,,,,,,,,,
499,1.0,,,,,,,145.7131805419922,,,,,,
549,1.0,,,,,,,103.62612915039062,,,,,,
599,1.0,,,,,,,112.0162353515625,,,,,,
649,1.0,,,,,,,88.31059265136719,,,,,,
699,1.0,,,,,,,67.16404724121094,,,,,,
749,1.0,,,,,,,55.283111572265625,,,,,,
799,1.0,,,,,,,49.969886779785156,,,,,,
849,1.0,,,,,,,30.22110939025879,,,,,,
899,1.0,,,,,,,23.61865997314453,,,,,,
949,1.0,,,,,,,20.25397491455078,,,,,,
959,1.0,,,0.0,0.0,0.0,0.0,,5.564444563788129e-06,100.0,0.0,100.0,0.0,16.480201721191406
960,,,1.1118889233330265e-05,,,,,,,,,,,
999,2.0,,,,,,,13.049860000610352,,,,,,
1049,2.0,,,,,,,6.845378875732422,,,,,,
1099,2.0,,,,,,,4.548783302307129,,,,,,
1149,2.0,,,,,,,3.7515532970428467,,,,,,
1199,2.0,,,,,,,3.476363182067871,,,,,,
1249,2.0,,,,,,,3.270033121109009,,,,,,
1299,2.0,,,,,,,3.2184348106384277,,,,,,
1349,2.0,,,,,,,3.5295393466949463,,,,,,
1399,2.0,,,,,,,3.2502317428588867,,,,,,
1439,2.0,,,0.0,0.0,0.0,0.0,,1.1118889233330265e-05,100.0,0.0,100.0,0.0,3.2630116939544678
1440,,,1.667333344812505e-05,,,,,,,,,,,
1449,3.0,,,,,,,3.230638027191162,,,,,,
1499,3.0,,,,,,,3.265660285949707,,,,,,
1549,3.0,,,,,,,3.3440797328948975,,,,,,
1599,3.0,,,,,,,3.1641414165496826,,,,,,
1649,3.0,,,,,,,3.2328073978424072,,,,,,
1699,3.0,,,,,,,3.198871612548828,,,,,,
1749,3.0,,,,,,,3.229177713394165,,,,,,
1799,3.0,,,,,,,3.141951084136963,,,,,,
1849,3.0,,,,,,,3.2223947048187256,,,,,,
1899,3.0,,,,,,,3.086575746536255,,,,,,
1919,3.0,,,0.0,0.0,0.0,0.0,,1.667333344812505e-05,100.0,0.0,100.0,0.0,3.1542506217956543
1920,,,2.2227777662919834e-05,,,,,,,,,,,
1949,4.0,,,,,,,3.212829113006592,,,,,,
1999,4.0,,,,,,,3.173990249633789,,,,,,
2049,4.0,,,,,,,3.0953357219696045,,,,,,
2099,4.0,,,,,,,3.044110059738159,,,,,,
2149,4.0,,,,,,,3.0647008419036865,,,,,,
2199,4.0,,,,,,,3.062685012817383,,,,,,
2249,4.0,,,,,,,3.0633108615875244,,,,,,
2299,4.0,,,,,,,3.0350115299224854,,,,,,
2349,4.0,,,,,,,2.9929089546203613,,,,,,
2399,4.0,,,0.0,0.0,0.0,0.0,2.816936492919922,2.2227777662919834e-05,100.0,0.0,100.0,0.0,2.911905527114868
2400,,,2.778222187771462e-05,,,,,,,,,,,
2449,5.0,,,,,,,2.9706671237945557,,,,,,
2499,5.0,,,,,,,3.0552921295166016,,,,,,
2549,5.0,,,,,,,2.8978424072265625,,,,,,
2599,5.0,,,,,,,2.9055368900299072,,,,,,
2649,5.0,,,,,,,2.8745405673980713,,,,,,
2699,5.0,,,,,,,2.9756832122802734,,,,,,
2749,5.0,,,,,,,2.797762632369995,,,,,,
2799,5.0,,,,,,,2.8706202507019043,,,,,,
2849,5.0,,,,,,,2.8154375553131104,,,,,,
2879,5.0,,,0.0,0.0,0.0,0.0,,2.778222187771462e-05,95.99024963378906,0.0,95.7908706665039,0.19937971234321594,2.6814401149749756
2880,,,3.3336666092509404e-05,,,,,,,,,,,
2899,6.0,,,,,,,2.724022150039673,,,,,,
2949,6.0,,,,,,,2.853844165802002,,,,,,
2999,6.0,,,,,,,2.5265588760375977,,,,,,
3049,6.0,,,,,,,2.540512800216675,,,,,,
3099,6.0,,,,,,,2.572415828704834,,,,,,
3149,6.0,,,,,,,2.570706844329834,,,,,,
3199,6.0,,,,,,,2.3599839210510254,,,,,,
3249,6.0,,,,,,,2.311443328857422,,,,,,
3299,6.0,,,,,,,2.3771021366119385,,,,,,
3349,6.0,,,,,,,2.404338836669922,,,,,,
3359,6.0,,,0.0,0.0,0.0,0.0,,3.3336666092509404e-05,73.17235565185547,0.022153301164507866,62.76029968261719,10.389898300170898,2.1965274810791016
3360,,,3.889111030730419e-05,,,,,,,,,,,
3399,7.0,,,,,,,2.1354987621307373,,,,,,
3449,7.0,,,,,,,2.3574025630950928,,,,,,
3499,7.0,,,,,,,2.3143558502197266,,,,,,
3549,7.0,,,,,,,1.932389497756958,,,,,,
3599,7.0,,,,,,,2.0045273303985596,,,,,,
3649,7.0,,,,,,,1.9671310186386108,,,,,,
3699,7.0,,,,,,,1.9554517269134521,,,,,,
3749,7.0,,,,,,,1.9687411785125732,,,,,,
3799,7.0,,,,,,,2.0173447132110596,,,,,,
3839,7.0,,,0.0,0.0,0.0,0.0,,3.889111030730419e-05,50.95259094238281,1.5950376987457275,19.206911087036133,30.15064239501953,1.6861069202423096
3840,,,4.4445554522098973e-05,,,,,,,,,,,
3849,8.0,,,,,,,1.9220079183578491,,,,,,
3899,8.0,,,,,,,2.016878128051758,,,,,,
3949,8.0,,,,,,,1.7784746885299683,,,,,,
3999,8.0,,,,,,,1.7879517078399658,,,,,,
4049,8.0,,,,,,,1.8251640796661377,,,,,,
4099,8.0,,,,,,,1.9796535968780518,,,,,,
4149,8.0,,,,,,,1.951011061668396,,,,,,
4199,8.0,,,,,,,1.7114291191101074,,,,,,
4249,8.0,,,,,,,1.8097631931304932,,,,,,
4299,8.0,,,,,,,1.5021178722381592,,,,,,
4319,8.0,,,0.0,0.0,0.0,0.0,,4.4445554522098973e-05,41.84758377075195,2.769162654876709,11.5418701171875,27.53655242919922,1.3798748254776
4320,,,4.999999873689376e-05,,,,,,,,,,,
4349,9.0,,,,,,,1.507291555404663,,,,,,
4399,9.0,,,,,,,1.839179277420044,,,,,,
4449,9.0,,,,,,,1.6898071765899658,,,,,,
4499,9.0,,,,,,,1.3823375701904297,,,,,,
4549,9.0,,,,,,,1.5313363075256348,,,,,,
4599,9.0,,,,,,,1.3406274318695068,,,,,,
4649,9.0,,,,,,,1.4904282093048096,,,,,,
4699,9.0,,,,,,,1.4270851612091064,,,,,,
4749,9.0,,,,,,,1.6105589866638184,,,,,,
4799,9.0,,,0.0,0.0,0.0,0.0,1.582728385925293,4.999999873689376e-05,40.47407913208008,1.4178112745285034,15.440850257873535,23.615419387817383,1.2815299034118652
4800,,,4.999999873689376e-05,,,,,,,,,,,
4849,10.0,,,,,,,1.4225163459777832,,,,,,
4899,10.0,,,,,,,1.341369867324829,,,,,,
4949,10.0,,,,,,,1.5473263263702393,,,,,,
4999,10.0,,,,,,,1.1540971994400024,,,,,,
5049,10.0,,,,,,,1.2644275426864624,,,,,,
5099,10.0,,,,,,,1.5725297927856445,,,,,,
5149,10.0,,,,,,,1.40571129322052,,,,,,
5199,10.0,,,,,,,1.4259841442108154,,,,,,
5249,10.0,,,,,,,1.36380934715271,,,,,,
5279,10.0,,,0.0,0.0,0.0,0.0,,4.999999873689376e-05,35.71112060546875,2.5697829723358154,9.193619728088379,23.947717666625977,1.127885341644287
5280,,,4.9996651796391234e-05,,,,,,,,,,,
5299,11.0,,,,,,,1.513333797454834,,,,,,
5349,11.0,,,,,,,1.2694143056869507,,,,,,
5399,11.0,,,,,,,1.526864767074585,,,,,,
5449,11.0,,,,,,,1.5360918045043945,,,,,,
5499,11.0,,,,,,,1.2667099237442017,,,,,,
5549,11.0,,,,,,,1.4117603302001953,,,,,,
5599,11.0,,,,,,,1.2950043678283691,,,,,,
5649,11.0,,,,,,,1.264695405960083,,,,,,
5699,11.0,,,,,,,1.3424757719039917,,,,,,
5749,11.0,,,,,,,1.293954849243164,,,,,,
5759,11.0,,,0.0,0.0,0.0,0.0,,4.9996651796391234e-05,32.72042465209961,2.835622549057007,7.775808811187744,22.108993530273438,1.0474392175674438
5760,,,4.9986603698926046e-05,,,,,,,,,,,
5799,12.0,,,,,,,1.4675531387329102,,,,,,
5849,12.0,,,,,,,1.2007113695144653,,,,,,
5899,12.0,,,,,,,1.269714593887329,,,,,,
5949,12.0,,,,,,,1.5184845924377441,,,,,,
5999,12.0,,,,,,,1.2420443296432495,,,,,,
6049,12.0,,,,,,,1.3572273254394531,,,,,,
6099,12.0,,,,,,,1.4000638723373413,,,,,,
6149,12.0,,,,,,,1.5446337461471558,,,,,,
6199,12.0,,,,,,,1.183168649673462,,,,,,
6239,12.0,,,0.0,0.0,0.0,0.0,,4.9986603698926046e-05,33.185646057128906,3.4337615966796875,6.490917205810547,23.26096534729004,1.0566989183425903
6240,,,4.996986535843462e-05,,,,,,,,,,,
6249,13.0,,,,,,,1.2346283197402954,,,,,,
6299,13.0,,,,,,,1.0889174938201904,,,,,,
6349,13.0,,,,,,,1.1530063152313232,,,,,,
6399,13.0,,,,,,,1.0160123109817505,,,,,,
6449,13.0,,,,,,,1.3708057403564453,,,,,,
6499,13.0,,,,,,,1.2348198890686035,,,,,,
6549,13.0,,,,,,,1.3510664701461792,,,,,,
6599,13.0,,,,,,,1.0382909774780273,,,,,,
6649,13.0,,,,,,,1.246477484703064,,,,,,
6699,13.0,,,,,,,1.0871278047561646,,,,,,
6719,13.0,,,0.0,0.0,0.0,0.0,,4.996986535843462e-05,30.992467880249023,2.8799290657043457,7.177669525146484,20.93486976623535,1.00742506980896
6720,,,4.994643313693814e-05,,,,,,,,,,,
6749,14.0,,,,,,,1.0513933897018433,,,,,,
6799,14.0,,,,,,,1.2330020666122437,,,,,,
6849,14.0,,,,,,,0.974483072757721,,,,,,
6899,14.0,,,,,,,1.0496304035186768,,,,,,
6949,14.0,,,,,,,1.1898740530014038,,,,,,
6999,14.0,,,,,,,1.0813496112823486,,,,,,
7049,14.0,,,,,,,1.140340805053711,,,,,,
7099,14.0,,,,,,,1.1342747211456299,,,,,,
7149,14.0,,,,,,,0.9645421504974365,,,,,,
7199,14.0,,,0.0,0.0,0.0,0.0,1.1059935092926025,4.994643313693814e-05,29.818342208862305,2.215330123901367,9.370845794677734,18.232166290283203,0.9294758439064026
7200,,,4.991632158635184e-05,,,,,,,,,,,
7249,15.0,,,,,,,1.2136651277542114,,,,,,
7299,15.0,,,,,,,1.2332903146743774,,,,,,
7349,15.0,,,,,,,1.1052957773208618,,,,,,
7399,15.0,,,,,,,1.1602468490600586,,,,,,
7449,15.0,,,,,,,1.0802361965179443,,,,,,
7499,15.0,,,,,,,1.1526286602020264,,,,,,
7549,15.0,,,,,,,1.2152138948440552,,,,,,
7599,15.0,,,,,,,1.1114423274993896,,,,,,
7649,15.0,,,,,,,1.397452712059021,,,,,,
7679,15.0,,,0.0,0.0,0.0,0.0,,4.991632158635184e-05,30.793088912963867,2.9020824432373047,6.734603404998779,21.156402587890625,0.9393154382705688
7680,,,4.987953070667572e-05,,,,,,,,,,,
7699,16.0,,,,,,,1.260178565979004,,,,,,
7749,16.0,,,,,,,1.131110429763794,,,,,,
7799,16.0,,,,,,,1.0416452884674072,,,,,,
7849,16.0,,,,,,,1.1746609210968018,,,,,,
7899,16.0,,,,,,,1.12667977809906,,,,,,
7949,16.0,,,,,,,1.057016134262085,,,,,,
7999,16.0,,,,,,,1.2101414203643799,,,,,,
8049,16.0,,,,,,,0.994591236114502,,,,,,
8099,16.0,,,,,,,0.8712325096130371,,,,,,
8149,16.0,,,,,,,1.0916310548782349,,,,,,
8159,16.0,,,0.0,0.0,0.0,0.0,,4.987953070667572e-05,26.295969009399414,2.9242358207702637,4.8515729904174805,18.520158767700195,0.8690340518951416
8160,,,4.983607868780382e-05,,,,,,,,,,,
8199,17.0,,,,,,,1.0898737907409668,,,,,,
8249,17.0,,,,,,,1.0551964044570923,,,,,,
8299,17.0,,,,,,,1.0085046291351318,,,,,,
8349,17.0,,,,,,,0.9565204381942749,,,,,,
8399,17.0,,,,,,,1.4826022386550903,,,,,,
8449,17.0,,,,,,,1.2225284576416016,,,,,,
8499,17.0,,,,,,,1.191223382949829,,,,,,
8549,17.0,,,,,,,1.1856727600097656,,,,,,
8599,17.0,,,,,,,1.1108758449554443,,,,,,
8639,17.0,,,0.0,0.0,0.0,0.0,,4.983607868780382e-05,25.719982147216797,2.4147098064422607,5.604784965515137,17.70048713684082,0.8032376766204834
8640,,,4.978596916771494e-05,,,,,,,,,,,
8649,18.0,,,,,,,1.070074439048767,,,,,,
8699,18.0,,,,,,,0.9179680347442627,,,,,,
8749,18.0,,,,,,,1.223095417022705,,,,,,
8799,18.0,,,,,,,1.1197268962860107,,,,,,
8849,18.0,,,,,,,1.0888744592666626,,,,,,
8899,18.0,,,,,,,1.6016361713409424,,,,,,
8949,18.0,,,,,,,0.9241245985031128,,,,,,
8999,18.0,,,,,,,0.9039140939712524,,,,,,
9049,18.0,,,,,,,1.1761102676391602,,,,,,
9099,18.0,,,,,,,0.975494384765625,,,,,,
9119,18.0,,,0.0,0.0,0.0,0.0,,4.978596916771494e-05,27.04918098449707,3.8325209617614746,4.674346446990967,18.542312622070312,0.8492560386657715
9120,,,4.972922397428192e-05,,,,,,,,,,,
9149,19.0,,,,,,,1.2052466869354248,,,,,,
9199,19.0,,,,,,,1.17161226272583,,,,,,
9249,19.0,,,,,,,0.8434773683547974,,,,,,
9299,19.0,,,,,,,0.7126306295394897,,,,,,
9349,19.0,,,,,,,1.0117261409759521,,,,,,
9399,19.0,,,,,,,1.022139072418213,,,,,,
9449,19.0,,,,,,,0.8329265117645264,,,,,,
9499,19.0,,,,,,,0.9018741846084595,,,,,,
9549,19.0,,,,,,,1.0290651321411133,,,,,,
9599,19.0,,,0.0,0.0,0.0,0.0,0.9049177169799805,4.972922397428192e-05,24.191404342651367,2.0381035804748535,6.446610450744629,15.706689834594727,0.77442467212677
9600,,,4.9665850383462384e-05,,,,,,,,,,,
9649,20.0,,,,,,,1.2846882343292236,,,,,,
9699,20.0,,,,,,,1.2023489475250244,,,,,,
9749,20.0,,,,,,,0.9274482727050781,,,,,,
9799,20.0,,,,,,,1.0000122785568237,,,,,,
9849,20.0,,,,,,,0.8733634352684021,,,,,,
9899,20.0,,,,,,,0.9242537021636963,,,,,,
9949,20.0,,,,,,,1.18046236038208,,,,,,
9999,20.0,,,,,,,0.9296151995658875,,,,,,
10049,20.0,,,,,,,0.9472606778144836,,,,,,
10079,20.0,,,0.0,0.0,0.0,0.0,,4.9665850383462384e-05,22.972972869873047,2.8799290657043457,3.9875941276550293,16.105449676513672,0.7525601983070374
10080,,,4.9595873861107975e-05,,,,,,,,,,,
10099,21.0,,,,,,,1.0150110721588135,,,,,,
10149,21.0,,,,,,,1.1730360984802246,,,,,,
10199,21.0,,,,,,,0.9430185556411743,,,,,,
10249,21.0,,,,,,,0.8889100551605225,,,,,,
10299,21.0,,,,,,,0.9045143127441406,,,,,,
10349,21.0,,,,,,,1.1215671300888062,,,,,,
10399,21.0,,,,,,,0.9103233814239502,,,,,,
10449,21.0,,,,,,,1.319960594177246,,,,,,
10499,21.0,,,,,,,0.8526109457015991,,,,,,
10549,21.0,,,,,,,0.8052453994750977,,,,,,
10559,21.0,,,0.0,0.0,0.0,0.0,,4.9595873861107975e-05,23.81479835510254,2.9020824432373047,4.7851128578186035,16.12760353088379,0.7498103976249695
10560,,,4.951930895913392e-05,,,,,,,,,,,
10599,22.0,,,,,,,0.9255325794219971,,,,,,
10649,22.0,,,,,,,1.0594747066497803,,,,,,
10699,22.0,,,,,,,0.8148813247680664,,,,,,
10749,22.0,,,,,,,1.0134634971618652,,,,,,
10799,22.0,,,,,,,0.7237054109573364,,,,,,
10849,22.0,,,,,,,0.9743443727493286,,,,,,
10899,22.0,,,,,,,0.9685140252113342,,,,,,
10949,22.0,,,,,,,0.9281727075576782,,,,,,
10999,22.0,,,,,,,1.0572385787963867,,,,,,
11039,22.0,,,0.0,0.0,0.0,0.0,,4.951930895913392e-05,23.083740234375,2.857775926589966,3.9432876110076904,16.282676696777344,0.7416024804115295
11040,,,4.943617750541307e-05,,,,,,,,,,,
11049,23.0,,,,,,,0.801567554473877,,,,,,
11099,23.0,,,,,,,0.6995562314987183,,,,,,
11149,23.0,,,,,,,1.1010987758636475,,,,,,
11199,23.0,,,,,,,0.8846551179885864,,,,,,
11249,23.0,,,,,,,0.9916900396347046,,,,,,
11299,23.0,,,,,,,0.8600754737854004,,,,,,
11349,23.0,,,,,,,1.022998332977295,,,,,,
11399,23.0,,,,,,,0.8489806652069092,,,,,,
11449,23.0,,,,,,,0.8733381032943726,,,,,,
11499,23.0,,,,,,,0.994586706161499,,,,,,
11519,23.0,,,0.0,0.0,0.0,0.0,,4.943617750541307e-05,23.083740234375,2.8799290657043457,4.430660247802734,15.773150444030762,0.7328690886497498
11520,,,4.934650132781826e-05,,,,,,,,,,,
11549,24.0,,,,,,,0.8947073817253113,,,,,,
11599,24.0,,,,,,,1.1271095275878906,,,,,,
11649,24.0,,,,,,,0.9293228387832642,,,,,,
11699,24.0,,,,,,,1.300349473953247,,,,,,
11749,24.0,,,,,,,0.8359675407409668,,,,,,
11799,24.0,,,,,,,0.8939756155014038,,,,,,
11849,24.0,,,,,,,0.8040540814399719,,,,,,
11899,24.0,,,,,,,0.8813246488571167,,,,,,
11949,24.0,,,,,,,0.9401618838310242,,,,,,
11999,24.0,,,0.0,0.0,0.0,0.0,0.6894862055778503,4.934650132781826e-05,22.17545509338379,3.212228536605835,3.8989808559417725,15.064244270324707,0.7125664353370667
12000,,,4.925030589220114e-05,,,,,,,,,,,
12049,25.0,,,,,,,0.8135753870010376,,,,,,
12099,25.0,,,,,,,0.741317868232727,,,,,,
12149,25.0,,,,,,,0.992735743522644,,,,,,
12199,25.0,,,,,,,0.7221999168395996,,,,,,
12249,25.0,,,,,,,0.6315822005271912,,,,,,
12299,25.0,,,,,,,0.7829382419586182,,,,,,
12349,25.0,,,,,,,0.9336331486701965,,,,,,
12399,25.0,,,,,,,0.877376139163971,,,,,,
12449,25.0,,,,,,,0.9802326560020447,,,,,,
12479,25.0,,,0.0,0.0,0.0,0.0,,4.925030589220114e-05,22.153301239013672,2.724855899810791,4.718653202056885,14.709792137145996,0.7229950428009033
12480,,,4.914761666441336e-05,,,,,,,,,,,
12499,26.0,,,,,,,0.637940526008606,,,,,,
12549,26.0,,,,,,,1.359257698059082,,,,,,
12599,26.0,,,,,,,0.6079239249229431,,,,,,
12649,26.0,,,,,,,1.041383981704712,,,,,,
12699,26.0,,,,,,,1.0877476930618286,,,,,,
12749,26.0,,,,,,,0.9462124705314636,,,,,,
12799,26.0,,,,,,,0.9004347324371338,,,,,,
12849,26.0,,,,,,,0.9800305962562561,,,,,,
12899,26.0,,,,,,,0.9970338344573975,,,,,,
12949,26.0,,,,,,,0.9322835803031921,,,,,,
12959,26.0,,,0.0,0.0,0.0,0.0,,4.914761666441336e-05,21.577314376831055,2.6140894889831543,4.7629594802856445,14.200265884399414,0.6875414252281189
12960,,,4.903846638626419e-05,,,,,,,,,,,
12999,27.0,,,,,,,1.038774847984314,,,,,,
13049,27.0,,,,,,,0.8335989713668823,,,,,,
13099,27.0,,,,,,,1.0375944375991821,,,,,,
13149,27.0,,,,,,,0.7433828115463257,,,,,,
13199,27.0,,,,,,,0.863315224647522,,,,,,
13249,27.0,,,,,,,0.8370203971862793,,,,,,
13299,27.0,,,,,,,0.8840893507003784,,,,,,
13349,27.0,,,,,,,1.008337378501892,,,,,,
13399,27.0,,,,,,,1.0739948749542236,,,,,,
13439,27.0,,,0.0,0.0,0.0,0.0,,4.903846638626419e-05,21.66592788696289,3.190075397491455,3.721754550933838,14.754097938537598,0.6874128580093384
13440,,,4.8922876885626465e-05,,,,,,,,,,,
13449,28.0,,,,,,,0.9079811573028564,,,,,,
13499,28.0,,,,,,,0.8123381733894348,,,,,,
13549,28.0,,,,,,,0.9912896156311035,,,,,,
13599,28.0,,,,,,,0.9771460890769958,,,,,,
13649,28.0,,,,,,,0.9605104923248291,,,,,,
13699,28.0,,,,,,,0.7733963131904602,,,,,,
13749,28.0,,,,,,,0.9504144787788391,,,,,,
13799,28.0,,,,,,,0.7887429594993591,,,,,,
13849,28.0,,,,,,,1.0238358974456787,,,,,,
13899,28.0,,,,,,,0.6519956588745117,,,,,,
13919,28.0,,,0.0,0.0,0.0,0.0,,4.8922876885626465e-05,20.558263778686523,2.835622549057007,3.8546743392944336,13.867966651916504,0.6567234992980957
13920,,,4.880088454228826e-05,,,,,,,,,,,
13949,29.0,,,,,,,0.8278788328170776,,,,,,
13999,29.0,,,,,,,0.8701826333999634,,,,,,
14049,29.0,,,,,,,0.757548451423645,,,,,,
14099,29.0,,,,,,,0.8620729446411133,,,,,,
14149,29.0,,,,,,,0.9881049394607544,,,,,,
14199,29.0,,,,,,,0.5694088935852051,,,,,,
14249,29.0,,,,,,,0.9324923157691956,,,,,,
14299,29.0,,,,,,,0.818160891532898,,,,,,
14349,29.0,,,,,,,0.9254440069198608,,,,,,
14399,29.0,,,0.0,0.0,0.0,0.0,0.8163938522338867,4.880088454228826e-05,20.624723434448242,2.857775926589966,3.633141279220581,14.133806228637695,0.6611686944961548
14400,,,4.8672522098058835e-05,,,,,,,,,,,
14449,30.0,,,,,,,0.82178795337677,,,,,,
14499,30.0,,,,,,,0.6374378204345703,,,,,,
14549,30.0,,,,,,,0.877490222454071,,,,,,
14599,30.0,,,,,,,0.7357871532440186,,,,,,
14649,30.0,,,,,,,1.0853097438812256,,,,,,
14699,30.0,,,,,,,0.9070684909820557,,,,,,
14749,30.0,,,,,,,0.8380794525146484,,,,,,
14799,30.0,,,,,,,0.7930551767349243,,,,,,
14849,30.0,,,,,,,0.637403666973114,,,,,,
14879,30.0,,,0.0,0.0,0.0,0.0,,4.8672522098058835e-05,20.8241024017334,2.5033230781555176,5.16171932220459,13.15906047821045,0.6624581813812256
14880,,,4.8537825932726264e-05,,,,,,,,,,,
14899,31.0,,,,,,,0.7949905395507812,,,,,,
14949,31.0,,,,,,,1.0009281635284424,,,,,,
14999,31.0,,,,,,,0.7990748882293701,,,,,,
15049,31.0,,,,,,,0.6169015169143677,,,,,,
15099,31.0,,,,,,,0.9509636759757996,,,,,,
15149,31.0,,,,,,,0.5385756492614746,,,,,,
15199,31.0,,,,,,,0.6712837815284729,,,,,,
15249,31.0,,,,,,,0.8045837879180908,,,,,,
15299,31.0,,,,,,,0.8187510967254639,,,,,,
15349,31.0,,,,,,,0.5888351202011108,,,,,,
15359,31.0,,,0.0,0.0,0.0,0.0,,4.8537825932726264e-05,19.78289794921875,2.370403289794922,4.652193069458008,12.76030158996582,0.6390503644943237
15360,,,4.839682878809981e-05,,,,,,,,,,,
15399,32.0,,,,,,,0.8131934404373169,,,,,,
15449,32.0,,,,,,,0.9175828695297241,,,,,,
15499,32.0,,,,,,,0.7041482925415039,,,,,,
15549,32.0,,,,,,,0.9952227473258972,,,,,,
15599,32.0,,,,,,,1.187105417251587,,,,,,
15649,32.0,,,,,,,0.7620325088500977,,,,,,
15699,32.0,,,,,,,0.9294002056121826,,,,,,
15749,32.0,,,,,,,0.6358916759490967,,,,,,
15799,32.0,,,,,,,0.7419010400772095,,,,,,
15839,32.0,,,0.0,0.0,0.0,0.0,,4.839682878809981e-05,20.004430770874023,4.186974048614502,2.4811697006225586,13.336287498474121,0.6487034559249878
15840,,,4.824957431992516e-05,,,,,,,,,,,
15849,33.0,,,,,,,0.8329413533210754,,,,,,
15899,33.0,,,,,,,0.773990273475647,,,,,,
15949,33.0,,,,,,,0.672426700592041,,,,,,
15999,33.0,,,,,,,0.7963172197341919,,,,,,
16049,33.0,,,,,,,0.9945263266563416,,,,,,
16099,33.0,,,,,,,0.7219712734222412,,,,,,
16149,33.0,,,,,,,0.7132501602172852,,,,,,
16199,33.0,,,,,,,0.4745493233203888,,,,,,
16249,33.0,,,,,,,0.7510679364204407,,,,,,
16299,33.0,,,,,,,0.7282411456108093,,,,,,
16319,33.0,,,0.0,0.0,0.0,0.0,,4.824957431992516e-05,20.13735008239746,2.9906957149505615,3.5002214908599854,13.646432876586914,0.6192070245742798
16320,,,4.809609890799038e-05,,,,,,,,,,,
16349,34.0,,,,,,,0.6098431944847107,,,,,,
16399,34.0,,,,,,,0.558369517326355,,,,,,
16449,34.0,,,,,,,0.5958080887794495,,,,,,
16499,34.0,,,,,,,0.8808265924453735,,,,,,
16549,34.0,,,,,,,0.5743873119354248,,,,,,
16599,34.0,,,,,,,1.0100840330123901,,,,,,
16649,34.0,,,,,,,0.9423346519470215,,,,,,
16699,34.0,,,,,,,0.7431074380874634,,,,,,
16749,34.0,,,,,,,0.7371844053268433,,,,,,
16799,34.0,,,0.0,0.0,0.0,0.0,0.5164374709129333,4.809609890799038e-05,18.56446647644043,2.835622549057007,3.699601173400879,12.029242515563965,0.602522075176239
16800,,,4.793644620804116e-05,,,,,,,,,,,
16849,35.0,,,,,,,0.7798362970352173,,,,,,
16899,35.0,,,,,,,0.9587230682373047,,,,,,
16949,35.0,,,,,,,0.5421876907348633,,,,,,
16999,35.0,,,,,,,0.6184804439544678,,,,,,
17049,35.0,,,,,,,0.7633565664291382,,,,,,
17099,35.0,,,,,,,0.798875093460083,,,,,,
17149,35.0,,,,,,,0.7068156599998474,,,,,,
17199,35.0,,,,,,,0.7100632190704346,,,,,,
17249,35.0,,,,,,,0.6882677674293518,,,,,,
17279,35.0,,,0.0,0.0,0.0,0.0,,4.793644620804116e-05,19.47275161743164,2.9685423374176025,3.3673017024993896,13.136907577514648,0.6401971578598022
17280,,,4.7770659875823185e-05,,,,,,,,,,,
17299,36.0,,,,,,,0.8397684693336487,,,,,,
17349,36.0,,,,,,,0.7275075912475586,,,,,,
17399,36.0,,,,,,,0.7494184970855713,,,,,,
17449,36.0,,,,,,,0.6313731670379639,,,,,,
17499,36.0,,,,,,,0.7817657589912415,,,,,,
17549,36.0,,,,,,,0.6063808798789978,,,,,,
17599,36.0,,,,,,,0.7737415432929993,,,,,,
17649,36.0,,,,,,,0.6079427003860474,,,,,,
17699,36.0,,,,,,,0.7786630392074585,,,,,,
17749,36.0,,,,,,,0.845802903175354,,,,,,
17759,36.0,,,0.0,0.0,0.0,0.0,,4.7770659875823185e-05,18.91891860961914,2.303943395614624,4.076207160949707,12.53876781463623,0.6063374876976013
17760,,,4.759878356708214e-05,,,,,,,,,,,
17799,37.0,,,,,,,0.5411065816879272,,,,,,
17849,37.0,,,,,,,0.875173807144165,,,,,,
17899,37.0,,,,,,,0.719064474105835,,,,,,
17949,37.0,,,,,,,0.684238851070404,,,,,,
17999,37.0,,,,,,,0.8173147439956665,,,,,,
18049,37.0,,,,,,,0.6365339756011963,,,,,,
18099,37.0,,,,,,,0.7672333717346191,,,,,,
18149,37.0,,,,,,,0.780504584312439,,,,,,
18199,37.0,,,,,,,0.7787464261054993,,,,,,
18239,37.0,,,0.0,0.0,0.0,0.0,,4.759878356708214e-05,18.475852966308594,1.8165706396102905,4.408506870269775,12.250775337219238,0.5967934131622314
18240,,,4.742086821352132e-05,,,,,,,,,,,
18249,38.0,,,,,,,0.9036344289779663,,,,,,
18299,38.0,,,,,,,0.8648831844329834,,,,,,
18349,38.0,,,,,,,0.6825603246688843,,,,,,
18399,38.0,,,,,,,0.6412512063980103,,,,,,
18449,38.0,,,,,,,0.7379183173179626,,,,,,
18499,38.0,,,,,,,0.5264202952384949,,,,,,
18549,38.0,,,,,,,0.6187022924423218,,,,,,
18599,38.0,,,,,,,0.8846842050552368,,,,,,
18649,38.0,,,,,,,0.7615599036216736,,,,,,
18699,38.0,,,,,,,0.6804478764533997,,,,,,
18719,38.0,,,0.0,0.0,0.0,0.0,,4.742086821352132e-05,18.453699111938477,2.5476295948028564,4.076207160949707,11.829862594604492,0.6046846508979797
18720,,,4.723695747088641e-05,,,,,,,,,,,
18749,39.0,,,,,,,0.6139318943023682,,,,,,
18799,39.0,,,,,,,0.6507643461227417,,,,,,
18849,39.0,,,,,,,0.6472974419593811,,,,,,
18899,39.0,,,,,,,0.6158244013786316,,,,,,
18949,39.0,,,,,,,0.850291907787323,,,,,,
18999,39.0,,,,,,,0.5327373147010803,,,,,,
19049,39.0,,,,,,,0.6335206627845764,,,,,,
19099,39.0,,,,,,,0.7593336701393127,,,,,,
19149,39.0,,,,,,,0.7334751486778259,,,,,,
19199,39.0,,,0.0,0.0,0.0,0.0,0.4784427881240845,4.723695747088641e-05,17.124502182006836,2.259636640548706,3.588834762573242,11.276030540466309,0.5596935153007507
19200,,,4.704710590885952e-05,,,,,,,,,,,
19249,40.0,,,,,,,1.1002192497253418,,,,,,
19299,40.0,,,,,,,1.1319985389709473,,,,,,
19349,40.0,,,,,,,0.5293290019035339,,,,,,
19399,40.0,,,,,,,0.6034890413284302,,,,,,
19449,40.0,,,,,,,0.5979385375976562,,,,,,
19499,40.0,,,,,,,0.666907787322998,,,,,,
19549,40.0,,,,,,,0.565575122833252,,,,,,
19599,40.0,,,,,,,0.5631488561630249,,,,,,
19649,40.0,,,,,,,0.4782807528972626,,,,,,
19679,40.0,,,0.0,0.0,0.0,0.0,,4.704710590885952e-05,17.988479614257812,3.278688430786133,2.835622549057007,11.87416934967041,0.594704806804657
19680,,,4.685136445914395e-05,,,,,,,,,,,
19699,41.0,,,,,,,0.7460752725601196,,,,,,
19749,41.0,,,,,,,0.720158576965332,,,,,,
19799,41.0,,,,,,,0.748974084854126,,,,,,
19849,41.0,,,,,,,0.6148157119750977,,,,,,
19899,41.0,,,,,,,0.652710497379303,,,,,,
19949,41.0,,,,,,,0.6847889423370361,,,,,,
19999,41.0,,,,,,,0.6631706953048706,,,,,,
20049,41.0,,,,,,,0.5134475231170654,,,,,,
20099,41.0,,,,,,,0.4416855275630951,,,,,,
20149,41.0,,,,,,,0.6261603832244873,,,,,,
20159,41.0,,,0.0,0.0,0.0,0.0,,4.685136445914395e-05,17.301727294921875,2.791315793991089,2.9242358207702637,11.586175918579102,0.5714559555053711
20160,,,4.6649784053443e-05,,,,,,,,,,,
20199,42.0,,,,,,,0.6049556732177734,,,,,,
20249,42.0,,,,,,,0.4932013750076294,,,,,,
20299,42.0,,,,,,,0.6644651889801025,,,,,,
20349,42.0,,,,,,,0.651969313621521,,,,,,
20399,42.0,,,,,,,0.6809391975402832,,,,,,
20449,42.0,,,,,,,0.55417799949646,,,,,,
20499,42.0,,,,,,,0.5679548978805542,,,,,,
20549,42.0,,,,,,,0.8102807998657227,,,,,,
20599,42.0,,,,,,,0.6041390895843506,,,,,,
20639,42.0,,,0.0,0.0,0.0,0.0,,4.6649784053443e-05,17.789100646972656,2.370403289794922,3.190075397491455,12.228622436523438,0.5860831141471863
20640,,,4.644242289941758e-05,,,,,,,,,,,
20649,43.0,,,,,,,0.5515537261962891,,,,,,
20699,43.0,,,,,,,0.7809595465660095,,,,,,
20749,43.0,,,,,,,0.6655112504959106,,,,,,
20799,43.0,,,,,,,0.7241355180740356,,,,,,
20849,43.0,,,,,,,0.5954023599624634,,,,,,
20899,43.0,,,,,,,0.7530370950698853,,,,,,
20949,43.0,,,,,,,0.6799904108047485,,,,,,
20999,43.0,,,,,,,0.6686692833900452,,,,,,
21049,43.0,,,,,,,0.510440468788147,,,,,,
21099,43.0,,,,,,,0.5108799934387207,,,,,,
21119,43.0,,,0.0,0.0,0.0,0.0,,4.644242289941758e-05,17.058042526245117,2.9906957149505615,2.702702760696411,11.364643096923828,0.5656949281692505
21120,,,4.622933192877099e-05,,,,,,,,,,,
21149,44.0,,,,,,,0.6779003143310547,,,,,,
21199,44.0,,,,,,,0.5285600423812866,,,,,,
21249,44.0,,,,,,,0.6745556592941284,,,,,,
21299,44.0,,,,,,,0.7590809464454651,,,,,,
21349,44.0,,,,,,,0.6468584537506104,,,,,,
21399,44.0,,,,,,,0.572723388671875,,,,,,
21449,44.0,,,,,,,0.5537298321723938,,,,,,
21499,44.0,,,,,,,0.6099125146865845,,,,,,
21549,44.0,,,,,,,0.5535635948181152,,,,,,
21599,44.0,,,0.0,0.0,0.0,0.0,0.7924782633781433,4.622933192877099e-05,15.83961009979248,2.1045634746551514,2.791315793991089,10.943730354309082,0.5439484715461731
21600,,,4.6010580263100564e-05,,,,,,,,,,,
21649,45.0,,,,,,,0.6391422748565674,,,,,,
21699,45.0,,,,,,,0.6304800510406494,,,,,,
21749,45.0,,,,,,,0.6546801328659058,,,,,,
21799,45.0,,,,,,,0.5839236378669739,,,,,,
21849,45.0,,,,,,,0.5593994855880737,,,,,,
21899,45.0,,,,,,,0.8365141153335571,,,,,,
21949,45.0,,,,,,,0.6729112267494202,,,,,,
21999,45.0,,,,,,,0.47556865215301514,,,,,,
22049,45.0,,,,,,,0.5968036651611328,,,,,,
22079,45.0,,,0.0,0.0,0.0,0.0,,4.6010580263100564e-05,16.504209518432617,2.5697829723358154,2.9685423374176025,10.9658842086792,0.5324891209602356
22080,,,4.57862151961308e-05,,,,,,,,,,,
22099,46.0,,,,,,,0.6057814359664917,,,,,,
22149,46.0,,,,,,,0.5239180326461792,,,,,,
22199,46.0,,,,,,,0.4485343396663666,,,,,,
22249,46.0,,,,,,,0.5418686270713806,,,,,,
22299,46.0,,,,,,,0.5157384872436523,,,,,,
22349,46.0,,,,,,,0.45709192752838135,,,,,,
22399,46.0,,,,,,,0.5059059858322144,,,,,,
22449,46.0,,,,,,,0.6582299470901489,,,,,,
22499,46.0,,,,,,,0.5028030276298523,,,,,,
22549,46.0,,,,,,,0.5091381072998047,,,,,,
22559,46.0,,,0.0,0.0,0.0,0.0,,4.57862151961308e-05,16.747896194458008,3.212228536605835,2.3925564289093018,11.143110275268555,0.5743634104728699
22560,,,4.555630948743783e-05,,,,,,,,,,,
22599,47.0,,,,,,,0.3901844024658203,,,,,,
22649,47.0,,,,,,,0.5619080066680908,,,,,,
22699,47.0,,,,,,,0.6813732385635376,,,,,,
22749,47.0,,,,,,,0.6860449910163879,,,,,,
22799,47.0,,,,,,,0.707294762134552,,,,,,
22849,47.0,,,,,,,0.6189725399017334,,,,,,
22899,47.0,,,,,,,0.6822390556335449,,,,,,
22949,47.0,,,,,,,0.6113552451133728,,,,,,
22999,47.0,,,,,,,0.6320728063583374,,,,,,
23039,47.0,,,0.0,0.0,0.0,0.0,,4.555630948743783e-05,15.9060697555542,2.370403289794922,2.813469171524048,10.722197532653809,0.5137144923210144
23040,,,4.532091770670377e-05,,,,,,,,,,,
23049,48.0,,,,,,,0.408307284116745,,,,,,
23099,48.0,,,,,,,0.38363176584243774,,,,,,
23149,48.0,,,,,,,0.5986528396606445,,,,,,
23199,48.0,,,,,,,0.5110799074172974,,,,,,
23249,48.0,,,,,,,0.6143378019332886,,,,,,
23299,48.0,,,,,,,0.7120757699012756,,,,,,
23349,48.0,,,,,,,0.579610288143158,,,,,,
23399,48.0,,,,,,,0.38102173805236816,,,,,,
23449,48.0,,,,,,,0.510796844959259,,,,,,
23499,48.0,,,,,,,0.6054611206054688,,,,,,
23519,48.0,,,0.0,0.0,0.0,0.0,,4.532091770670377e-05,16.304828643798828,2.4368631839752197,3.167922019958496,10.700044631958008,0.5333746075630188
23520,,,4.508010533754714e-05,,,,,,,,,,,
23549,49.0,,,,,,,0.350423663854599,,,,,,
23599,49.0,,,,,,,0.636959969997406,,,,,,
23649,49.0,,,,,,,0.522901713848114,,,,,,
23699,49.0,,,,,,,0.7402576208114624,,,,,,
23749,49.0,,,,,,,0.7929528951644897,,,,,,
23799,49.0,,,,,,,0.6999562382698059,,,,,,
23849,49.0,,,,,,,0.48059946298599243,,,,,,
23899,49.0,,,,,,,0.6273316740989685,,,,,,
23949,49.0,,,,,,,0.6236096620559692,,,,,,
23999,49.0,,,0.0,0.0,0.0,0.0,0.7302936315536499,4.508010533754714e-05,15.861763000488281,2.281790018081665,2.9020824432373047,10.67789077758789,0.5195046663284302
24000,,,4.483394150156528e-05,,,,,,,,,,,
24049,50.0,,,,,,,0.49059608578681946,,,,,,
24099,50.0,,,,,,,0.409881055355072,,,,,,
24149,50.0,,,,,,,0.4846787452697754,,,,,,
24199,50.0,,,,,,,0.5047978162765503,,,,,,
24249,50.0,,,,,,,0.6192074418067932,,,,,,
24299,50.0,,,,,,,0.5659392476081848,,,,,,
24349,50.0,,,,,,,0.5866202116012573,,,,,,
24399,50.0,,,,,,,0.4388822913169861,,,,,,
24449,50.0,,,,,,,0.5661447048187256,,,,,,
24479,50.0,,,0.0,0.0,0.0,0.0,,4.483394150156528e-05,15.750996589660645,2.3925564289093018,2.680549383163452,10.67789077758789,0.5209980607032776
24480,,,4.458249168237671e-05,,,,,,,,,,,
24499,51.0,,,,,,,0.5299304723739624,,,,,,
24549,51.0,,,,,,,0.5224820375442505,,,,,,
24599,51.0,,,,,,,0.6825869679450989,,,,,,
24649,51.0,,,,,,,0.551029622554779,,,,,,
24699,51.0,,,,,,,0.6023299098014832,,,,,,
24749,51.0,,,,,,,0.4252941608428955,,,,,,
24799,51.0,,,,,,,0.632037878036499,,,,,,
24849,51.0,,,,,,,0.5918582677841187,,,,,,
24899,51.0,,,,,,,0.48544836044311523,,,,,,
24949,51.0,,,,,,,0.4934265911579132,,,,,,
24959,51.0,,,0.0,0.0,0.0,0.0,,4.458249168237671e-05,15.042091369628906,2.5033230781555176,2.5919361114501953,9.946831703186035,0.5190249681472778
24960,,,4.4325828639557585e-05,,,,,,,,,,,
24999,52.0,,,,,,,0.6369835138320923,,,,,,
25049,52.0,,,,,,,0.5429593920707703,,,,,,
25099,52.0,,,,,,,0.4228856861591339,,,,,,
25149,52.0,,,,,,,0.3852084279060364,,,,,,
25199,52.0,,,,,,,0.5890514254570007,,,,,,
25249,52.0,,,,,,,0.5772174596786499,,,,,,
25299,52.0,,,,,,,0.29767608642578125,,,,,,
25349,52.0,,,,,,,0.3327098786830902,,,,,,
25399,52.0,,,,,,,0.4487922191619873,,,,,,
25439,52.0,,,0.0,0.0,0.0,0.0,,4.4325828639557585e-05,16.016836166381836,2.0602569580078125,3.9654407501220703,9.991138458251953,0.5352043509483337
25440,,,4.4064014218747616e-05,,,,,,,,,,,
25449,53.0,,,,,,,0.504516065120697,,,,,,
25499,53.0,,,,,,,0.4320797324180603,,,,,,
25549,53.0,,,,,,,0.49368083477020264,,,,,,
25599,53.0,,,,,,,0.3205798864364624,,,,,,
25649,53.0,,,,,,,0.43535923957824707,,,,,,
25699,53.0,,,,,,,0.4642571806907654,,,,,,
25749,53.0,,,,,,,0.6685274243354797,,,,,,
25799,53.0,,,,,,,0.527359127998352,,,,,,
25849,53.0,,,,,,,0.5379464626312256,,,,,,
25899,53.0,,,,,,,0.5698283314704895,,,,,,
25919,53.0,,,0.0,0.0,0.0,0.0,,4.4064014218747616e-05,15.994683265686035,2.5033230781555176,2.326096534729004,11.165263175964355,0.5441586971282959
25920,,,4.3797124817501754e-05,,,,,,,,,,,
25949,54.0,,,,,,,0.4303269386291504,,,,,,
25999,54.0,,,,,,,0.5965622663497925,,,,,,
26049,54.0,,,,,,,0.5657637119293213,,,,,,
26099,54.0,,,,,,,0.4271284341812134,,,,,,
26149,54.0,,,,,,,0.3611835837364197,,,,,,
26199,54.0,,,,,,,0.6445186138153076,,,,,,
26249,54.0,,,,,,,0.3665894865989685,,,,,,
26299,54.0,,,,,,,0.48509496450424194,,,,,,
26349,54.0,,,,,,,0.42474809288978577,,,,,,
26399,54.0,,,0.0,0.0,0.0,0.0,0.438260555267334,4.3797124817501754e-05,15.175010681152344,1.9051839113235474,3.677448034286499,9.592379570007324,0.506916880607605
26400,,,4.352523683337495e-05,,,,,,,,,,,
26449,55.0,,,,,,,0.4735800623893738,,,,,,
26499,55.0,,,,,,,0.3941684067249298,,,,,,
26549,55.0,,,,,,,0.4079095721244812,,,,,,
26599,55.0,,,,,,,0.7511797547340393,,,,,,
26649,55.0,,,,,,,0.6150882244110107,,,,,,
26699,55.0,,,,,,,0.5227129459381104,,,,,,
26749,55.0,,,,,,,0.6667362451553345,,,,,,
26799,55.0,,,,,,,0.6420468688011169,,,,,,
26849,55.0,,,,,,,0.5180017948150635,,,,,,
26879,55.0,,,0.0,0.0,0.0,0.0,,4.352523683337495e-05,15.972530364990234,2.4368631839752197,2.658396005630493,10.877270698547363,0.5205694437026978
26880,,,4.3248415749985725e-05,,,,,,,,,,,
26899,56.0,,,,,,,0.5290415287017822,,,,,,
26949,56.0,,,,,,,0.5956525802612305,,,,,,
26999,56.0,,,,,,,0.5059148073196411,,,,,,
27049,56.0,,,,,,,0.6210417747497559,,,,,,
27099,56.0,,,,,,,0.4325109124183655,,,,,,
27149,56.0,,,,,,,0.5880261659622192,,,,,,
27199,56.0,,,,,,,0.538373589515686,,,,,,
27249,56.0,,,,,,,0.7318227887153625,,,,,,
27299,56.0,,,,,,,0.7382255792617798,,,,,,
27349,56.0,,,,,,,0.49236834049224854,,,,,,
27359,56.0,,,0.0,0.0,0.0,0.0,,4.3248415749985725e-05,15.463004112243652,2.9242358207702637,1.860877275466919,10.67789077758789,0.5359417796134949
27360,,,4.296674524084665e-05,,,,,,,,,,,
27399,57.0,,,,,,,0.39180728793144226,,,,,,
27449,57.0,,,,,,,0.4123963713645935,,,,,,
27499,57.0,,,,,,,0.4731173813343048,,,,,,
27549,57.0,,,,,,,0.4716816544532776,,,,,,
27599,57.0,,,,,,,0.4992731809616089,,,,,,
27649,57.0,,,,,,,0.49027955532073975,,,,,,
27699,57.0,,,,,,,0.5188705325126648,,,,,,
27749,57.0,,,,,,,0.4560255706310272,,,,,,
27799,57.0,,,,,,,0.6202154159545898,,,,,,
27839,57.0,,,0.0,0.0,0.0,0.0,,4.296674524084665e-05,15.618077278137207,2.74700927734375,2.702702760696411,10.168365478515625,0.5496111512184143
27840,,,4.268030170351267e-05,,,,,,,,,,,
27849,58.0,,,,,,,0.2993444800376892,,,,,,
27899,58.0,,,,,,,0.3529384136199951,,,,,,
27949,58.0,,,,,,,0.3412338197231293,,,,,,
27999,58.0,,,,,,,0.587992787361145,,,,,,
28049,58.0,,,,,,,0.4237746596336365,,,,,,
28099,58.0,,,,,,,0.33238786458969116,,,,,,
28149,58.0,,,,,,,0.34263715147972107,,,,,,
28199,58.0,,,,,,,0.5037974119186401,,,,,,
28249,58.0,,,,,,,0.5784307718276978,,,,,,
28299,58.0,,,,,,,0.2595326602458954,,,,,,
28319,58.0,,,0.0,0.0,0.0,0.0,,4.268030170351267e-05,14.59902572631836,2.9463889598846436,1.6836508512496948,9.968985557556152,0.5217277407646179
28320,,,4.2389157897559926e-05,,,,,,,,,,,
28349,59.0,,,,,,,0.5028682947158813,,,,,,
28399,59.0,,,,,,,0.5035318732261658,,,,,,
28449,59.0,,,,,,,0.5148947834968567,,,,,,
28499,59.0,,,,,,,0.5032336115837097,,,,,,
28549,59.0,,,,,,,0.43848344683647156,,,,,,
28599,59.0,,,,,,,0.42429906129837036,,,,,,
28649,59.0,,,,,,,0.4634237289428711,,,,,,
28699,59.0,,,,,,,0.26818567514419556,,,,,,
28749,59.0,,,,,,,0.4217017889022827,,,,,,
28799,59.0,,,0.0,0.0,0.0,0.0,0.4837644100189209,4.2389157897559926e-05,15.440850257873535,2.0602569580078125,3.588834762573242,9.79175853729248,0.5293217301368713
28800,,,4.2093397496500984e-05,,,,,,,,,,,
28849,60.0,,,,,,,0.6741869449615479,,,,,,
28899,60.0,,,,,,,0.409447580575943,,,,,,
28949,60.0,,,,,,,0.2787674069404602,,,,,,
28999,60.0,,,,,,,0.5087701082229614,,,,,,
29049,60.0,,,,,,,0.4748714566230774,,,,,,
29099,60.0,,,,,,,0.4075233042240143,,,,,,
29149,60.0,,,,,,,0.41575929522514343,,,,,,
29199,60.0,,,,,,,0.5277130007743835,,,,,,
29249,60.0,,,,,,,0.32060226798057556,,,,,,
29279,60.0,,,0.0,0.0,0.0,0.0,,4.2093397496500984e-05,15.26362419128418,2.370403289794922,2.769162654876709,10.124058723449707,0.5220854878425598
29280,,,4.17931005358696e-05,,,,,,,,,,,
29299,61.0,,,,,,,0.328035444021225,,,,,,
29349,61.0,,,,,,,0.5216306447982788,,,,,,
29399,61.0,,,,,,,0.4612407088279724,,,,,,
29449,61.0,,,,,,,0.6321964263916016,,,,,,
29499,61.0,,,,,,,0.5569847822189331,,,,,,
29549,61.0,,,,,,,0.4499281048774719,,,,,,
29599,61.0,,,,,,,0.42104098200798035,,,,,,
29649,61.0,,,,,,,0.5752836465835571,,,,,,
29699,61.0,,,,,,,0.39550769329071045,,,,,,
29749,61.0,,,,,,,0.4237540364265442,,,,,,
29759,61.0,,,0.0,0.0,0.0,0.0,,4.17931005358696e-05,14.665485382080078,2.193176746368408,3.0128488540649414,9.45945930480957,0.5033050179481506
29760,,,4.148835068917833e-05,,,,,,,,,,,
29799,62.0,,,,,,,0.3848116397857666,,,,,,
29849,62.0,,,,,,,0.3781045079231262,,,,,,
29899,62.0,,,,,,,0.2968222200870514,,,,,,
29949,62.0,,,,,,,0.5290635824203491,,,,,,
29999,62.0,,,,,,,0.6757931709289551,,,,,,
30049,62.0,,,,,,,0.3038802742958069,,,,,,
30099,62.0,,,,,,,0.6247776746749878,,,,,,
30149,62.0,,,,,,,0.3670696020126343,,,,,,
30199,62.0,,,,,,,0.3597722053527832,,,,,,
30239,62.0,,,0.0,0.0,0.0,0.0,,4.148835068917833e-05,15.26362419128418,2.4147098064422607,2.5033230781555176,10.34559154510498,0.5161142349243164
30240,,,4.117922799196094e-05,,,,,,,,,,,
30249,63.0,,,,,,,0.4907325506210327,,,,,,
30299,63.0,,,,,,,0.3888274133205414,,,,,,
30349,63.0,,,,,,,0.39167147874832153,,,,,,
30399,63.0,,,,,,,0.22587326169013977,,,,,,
30449,63.0,,,,,,,0.5383958220481873,,,,,,
30499,63.0,,,,,,,0.3624497056007385,,,,,,
30549,63.0,,,,,,,0.5289229154586792,,,,,,
30599,63.0,,,,,,,0.33383357524871826,,,,,,
30649,63.0,,,,,,,0.6039079427719116,,,,,,
30699,63.0,,,,,,,0.6083680391311646,,,,,,
30719,63.0,,,0.0,0.0,0.0,0.0,,4.117922799196094e-05,15.928223609924316,1.9273371696472168,3.8768277168273926,10.124058723449707,0.5470919609069824
30720,,,4.08658197557088e-05,,,,,,,,,,,
30749,64.0,,,,,,,0.3675844669342041,,,,,,
30799,64.0,,,,,,,0.4546521306037903,,,,,,
30849,64.0,,,,,,,0.6374876499176025,,,,,,
30899,64.0,,,,,,,0.4421078562736511,,,,,,
30949,64.0,,,,,,,0.29736125469207764,,,,,,
30999,64.0,,,,,,,0.4930575489997864,,,,,,
31049,64.0,,,,,,,0.4263659119606018,,,,,,
31099,64.0,,,,,,,0.4819256365299225,,,,,,
31149,64.0,,,,,,,0.4543019235134125,,,,,,
31199,64.0,,,0.0,0.0,0.0,0.0,0.437321275472641,4.08658197557088e-05,15.684536933898926,2.835622549057007,2.171023368835449,10.67789077758789,0.5367403030395508
31200,,,4.0548209653934464e-05,,,,,,,,,,,
31249,65.0,,,,,,,0.35752764344215393,,,,,,
31299,65.0,,,,,,,0.4489774703979492,,,,,,
31349,65.0,,,,,,,0.4910733103752136,,,,,,
31399,65.0,,,,,,,0.42500579357147217,,,,,,
31449,65.0,,,,,,,0.5839685797691345,,,,,,
31499,65.0,,,,,,,0.35257118940353394,,,,,,
31549,65.0,,,,,,,0.4161529839038849,,,,,,
31599,65.0,,,,,,,0.42541614174842834,,,,,,
31649,65.0,,,,,,,0.24804933369159698,,,,,,
31679,65.0,,,0.0,0.0,0.0,0.0,,4.0548209653934464e-05,14.532565116882324,2.4368631839752197,2.6362428665161133,9.45945930480957,0.5136141180992126
31680,,,4.0226488636108115e-05,,,,,,,,,,,
31699,66.0,,,,,,,0.3871331214904785,,,,,,
31749,66.0,,,,,,,0.4644891321659088,,,,,,
31799,66.0,,,,,,,0.6555500626564026,,,,,,
31849,66.0,,,,,,,0.36312156915664673,,,,,,
31899,66.0,,,,,,,0.48093509674072266,,,,,,
31949,66.0,,,,,,,0.19959087669849396,,,,,,
31999,66.0,,,,,,,0.42978495359420776,,,,,,
32049,66.0,,,,,,,0.4206467568874359,,,,,,
32099,66.0,,,,,,,0.3414672315120697,,,,,,
32149,66.0,,,,,,,0.37233245372772217,,,,,,
32159,66.0,,,0.0,0.0,0.0,0.0,,4.0226488636108115e-05,14.86486530303955,2.281790018081665,2.724855899810791,9.858219146728516,0.5102196335792542
32160,,,3.9900740375742316e-05,,,,,,,,,,,
32199,67.0,,,,,,,0.30114638805389404,,,,,,
32249,67.0,,,,,,,0.45790308713912964,,,,,,
32299,67.0,,,,,,,0.2990269362926483,,,,,,
32349,67.0,,,,,,,0.4530964493751526,,,,,,
32399,67.0,,,,,,,0.6046535968780518,,,,,,
32449,67.0,,,,,,,0.3887113332748413,,,,,,
32499,67.0,,,,,,,0.27742838859558105,,,,,,
32549,67.0,,,,,,,0.2778092920780182,,,,,,
32599,67.0,,,,,,,0.4195338487625122,,,,,,
32639,67.0,,,0.0,0.0,0.0,0.0,,3.9900740375742316e-05,15.26362419128418,2.4590163230895996,2.857775926589966,9.946831703186035,0.5290331840515137
32640,,,3.957105218432844e-05,,,,,,,,,,,
32649,68.0,,,,,,,0.48749229311943054,,,,,,
32699,68.0,,,,,,,0.44734519720077515,,,,,,
32749,68.0,,,,,,,0.3533690273761749,,,,,,
32799,68.0,,,,,,,0.24735984206199646,,,,,,
32849,68.0,,,,,,,0.4237145185470581,,,,,,
32899,68.0,,,,,,,0.5319151878356934,,,,,,
32949,68.0,,,,,,,0.19859451055526733,,,,,,
32999,68.0,,,,,,,0.3561133146286011,,,,,,
33049,68.0,,,,,,,0.3956901431083679,,,,,,
33099,68.0,,,,,,,0.6020314693450928,,,,,,
33119,68.0,,,0.0,0.0,0.0,0.0,,3.957105218432844e-05,15.285778045654297,2.348249912261963,2.835622549057007,10.10190486907959,0.5308972597122192
33120,,,3.923751864931546e-05,,,,,,,,,,,
33149,69.0,,,,,,,0.5709139108657837,,,,,,
33199,69.0,,,,,,,0.3556027412414551,,,,,,
33249,69.0,,,,,,,0.37909698486328125,,,,,,
33299,69.0,,,,,,,0.3729540705680847,,,,,,
33349,69.0,,,,,,,0.4024082124233246,,,,,,
33399,69.0,,,,,,,0.2229664921760559,,,,,,
33449,69.0,,,,,,,0.38930249214172363,,,,,,
33499,69.0,,,,,,,0.4630756378173828,,,,,,
33549,69.0,,,,,,,0.38968533277511597,,,,,,
33599,69.0,,,0.0,0.0,0.0,0.0,0.16138574481010437,3.923751864931546e-05,14.93132495880127,2.5919361114501953,2.702702760696411,9.636686325073242,0.5157557725906372
33600,,,3.890023072017357e-05,,,,,,,,,,,
33649,70.0,,,,,,,0.3251275420188904,,,,,,
33699,70.0,,,,,,,0.3864251375198364,,,,,,
33749,70.0,,,,,,,0.4505893290042877,,,,,,
33799,70.0,,,,,,,0.3530307710170746,,,,,,
33849,70.0,,,,,,,0.4022921621799469,,,,,,
33899,70.0,,,,,,,0.3449000120162964,,,,,,
33949,70.0,,,,,,,0.4324803352355957,,,,,,
33999,70.0,,,,,,,0.3464545011520386,,,,,,
34049,70.0,,,,,,,0.28366371989250183,,,,,,
34079,70.0,,,0.0,0.0,0.0,0.0,,3.890023072017357e-05,14.687638282775879,2.9020824432373047,2.0824103355407715,9.703145980834961,0.5176098942756653
34080,,,3.8559275708394125e-05,,,,,,,,,,,
34099,71.0,,,,,,,0.33344903588294983,,,,,,
34149,71.0,,,,,,,0.39139121770858765,,,,,,
34199,71.0,,,,,,,0.29523253440856934,,,,,,
34249,71.0,,,,,,,0.28812989592552185,,,,,,
34299,71.0,,,,,,,0.4085087776184082,,,,,,
34349,71.0,,,,,,,0.46129944920539856,,,,,,
34399,71.0,,,,,,,0.4442729353904724,,,,,,
34449,71.0,,,,,,,0.5252983570098877,,,,,,
34499,71.0,,,,,,,0.23497088253498077,,,,,,
34549,71.0,,,,,,,0.2826888859272003,,,,,,
34559,71.0,,,0.0,0.0,0.0,0.0,,3.8559275708394125e-05,15.108551025390625,2.193176746368408,2.9020824432373047,10.01329231262207,0.5301830768585205
34560,,,3.821475547738373e-05,,,,,,,,,,,
34599,72.0,,,,,,,0.3897611200809479,,,,,,
34649,72.0,,,,,,,0.2965300679206848,,,,,,
34699,72.0,,,,,,,0.342761754989624,,,,,,
34749,72.0,,,,,,,0.2832971215248108,,,,,,
34799,72.0,,,,,,,0.24426572024822235,,,,,,
34849,72.0,,,,,,,0.33513087034225464,,,,,,
34899,72.0,,,,,,,0.24896754324436188,,,,,,
34949,72.0,,,,,,,0.33029261231422424,,,,,,
34999,72.0,,,,,,,0.441646009683609,,,,,,
35039,72.0,,,0.0,0.0,0.0,0.0,,3.821475547738373e-05,14.86486530303955,2.370403289794922,2.769162654876709,9.725298881530762,0.5497879385948181
35040,,,3.786675733863376e-05,,,,,,,,,,,
35049,73.0,,,,,,,0.32522326707839966,,,,,,
35099,73.0,,,,,,,0.29665079712867737,,,,,,
35149,73.0,,,,,,,0.4427562952041626,,,,,,
35199,73.0,,,,,,,0.3891884982585907,,,,,,
35249,73.0,,,,,,,0.35793864727020264,,,,,,
35299,73.0,,,,,,,0.2590455412864685,,,,,,
35349,73.0,,,,,,,0.2377646118402481,,,,,,
35399,73.0,,,,,,,0.31710124015808105,,,,,,
35449,73.0,,,,,,,0.3748965859413147,,,,,,
35499,73.0,,,,,,,0.36013925075531006,,,,,,
35519,73.0,,,0.0,0.0,0.0,0.0,,3.786675733863376e-05,13.934426307678223,1.9273371696472168,2.680549383163452,9.326539993286133,0.507626473903656
35520,,,3.7515375879593194e-05,,,,,,,,,,,
35549,74.0,,,,,,,0.3340529203414917,,,,,,
35599,74.0,,,,,,,0.42692509293556213,,,,,,
35649,74.0,,,,,,,0.4536345601081848,,,,,,
35699,74.0,,,,,,,0.47137758135795593,,,,,,
35749,74.0,,,,,,,0.29166826605796814,,,,,,
35799,74.0,,,,,,,0.3208428919315338,,,,,,
35849,74.0,,,,,,,0.5109958648681641,,,,,,
35899,74.0,,,,,,,0.41820651292800903,,,,,,
35949,74.0,,,,,,,0.5793847441673279,,,,,,
35999,74.0,,,0.0,0.0,0.0,0.0,0.4386599659919739,3.7515375879593194e-05,13.845812797546387,1.8387240171432495,2.857775926589966,9.149312973022461,0.49714574217796326
36000,,,3.716070932568982e-05,,,,,,,,,,,
36049,75.0,,,,,,,0.2857804000377655,,,,,,
36099,75.0,,,,,,,0.5665780901908875,,,,,,
36149,75.0,,,,,,,0.26169276237487793,,,,,,
36199,75.0,,,,,,,0.289400190114975,,,,,,
36249,75.0,,,,,,,0.3608461618423462,,,,,,
36299,75.0,,,,,,,0.389342337846756,,,,,,
36349,75.0,,,,,,,0.4086494445800781,,,,,,
36399,75.0,,,,,,,0.2616504430770874,,,,,,
36449,75.0,,,,,,,0.4797042906284332,,,,,,
36479,75.0,,,0.0,0.0,0.0,0.0,,3.716070932568982e-05,14.04519271850586,2.237483501434326,2.1488702297210693,9.658839225769043,0.5257309675216675
36480,,,3.6802859540330246e-05,,,,,,,,,,,
36499,76.0,,,,,,,0.43494561314582825,,,,,,
36549,76.0,,,,,,,0.2556260824203491,,,,,,
36599,76.0,,,,,,,0.3202340006828308,,,,,,
36649,76.0,,,,,,,0.2033238410949707,,,,,,
36699,76.0,,,,,,,0.18407602608203888,,,,,,
36749,76.0,,,,,,,0.20861290395259857,,,,,,
36799,76.0,,,,,,,0.5511800050735474,,,,,,
36849,76.0,,,,,,,0.4058704674243927,,,,,,
36899,76.0,,,,,,,0.2660858631134033,,,,,,
36949,76.0,,,,,,,0.45781847834587097,,,,,,
36959,76.0,,,0.0,0.0,0.0,0.0,,3.6802859540330246e-05,15.81745719909668,2.4590163230895996,3.3894550800323486,9.968985557556152,0.5679963231086731
36960,,,3.644191747298464e-05,,,,,,,,,,,
36999,77.0,,,,,,,0.3772748112678528,,,,,,
37049,77.0,,,,,,,0.24011746048927307,,,,,,
37099,77.0,,,,,,,0.2514858543872833,,,,,,
37149,77.0,,,,,,,0.22256910800933838,,,,,,
37199,77.0,,,,,,,0.17957529425621033,,,,,,
37249,77.0,,,,,,,0.22338207066059113,,,,,,
37299,77.0,,,,,,,0.3586787283420563,,,,,,
37349,77.0,,,,,,,0.3539380133152008,,,,,,
37399,77.0,,,,,,,0.25394436717033386,,,,,,
37439,77.0,,,0.0,0.0,0.0,0.0,,3.644191747298464e-05,13.823659896850586,2.1267168521881104,2.724855899810791,8.972086906433105,0.5092085599899292
37440,,,3.60779813490808e-05,,,,,,,,,,,
37449,78.0,,,,,,,0.337422251701355,,,,,,
37499,78.0,,,,,,,0.38197827339172363,,,,,,
37549,78.0,,,,,,,0.3986816108226776,,,,,,
37599,78.0,,,,,,,0.3717769980430603,,,,,,
37649,78.0,,,,,,,0.3272658586502075,,,,,,
37699,78.0,,,,,,,0.22593432664871216,,,,,,
37749,78.0,,,,,,,0.3725810647010803,,,,,,
37799,78.0,,,,,,,0.2412903606891632,,,,,,
37849,78.0,,,,,,,0.23734968900680542,,,,,,
37899,78.0,,,,,,,0.3965449929237366,,,,,,
37919,78.0,,,0.0,0.0,0.0,0.0,,3.60779813490808e-05,14.798404693603516,1.860877275466919,3.234381914138794,9.703145980834961,0.5490794777870178
37920,,,3.571115667000413e-05,,,,,,,,,,,
37949,79.0,,,,,,,0.30630970001220703,,,,,,
37999,79.0,,,,,,,0.270694375038147,,,,,,
38049,79.0,,,,,,,0.23948386311531067,,,,,,
38099,79.0,,,,,,,0.24342797696590424,,,,,,
38149,79.0,,,,,,,0.2695101201534271,,,,,,
38199,79.0,,,,,,,0.2872574031352997,,,,,,
38249,79.0,,,,,,,0.2605302929878235,,,,,,
38299,79.0,,,,,,,0.15523749589920044,,,,,,
38349,79.0,,,,,,,0.4585602879524231,,,,,,
38399,79.0,,,0.0,0.0,0.0,0.0,0.4863612651824951,3.571115667000413e-05,14.04519271850586,1.9273371696472168,2.702702760696411,9.415152549743652,0.5302668213844299
38400,,,3.534153802320361e-05,,,,,,,,,,,
38449,80.0,,,,,,,0.19091036915779114,,,,,,
38499,80.0,,,,,,,0.3060797154903412,,,,,,
38549,80.0,,,,,,,0.29581546783447266,,,,,,
38599,80.0,,,,,,,0.27026575803756714,,,,,,
38649,80.0,,,,,,,0.2982141375541687,,,,,,
38699,80.0,,,,,,,0.17433130741119385,,,,,,
38749,80.0,,,,,,,0.3587445616722107,,,,,,
38799,80.0,,,,,,,0.24154776334762573,,,,,,
38849,80.0,,,,,,,0.20094899833202362,,,,,,
38879,80.0,,,0.0,0.0,0.0,0.0,,3.534153802320361e-05,13.73504638671875,2.303943395614624,2.0381035804748535,9.392999649047852,0.5324151515960693
38880,,,3.496923091006465e-05,,,,,,,,,,,
38899,81.0,,,,,,,0.40456196665763855,,,,,,
38949,81.0,,,,,,,0.34356337785720825,,,,,,
38999,81.0,,,,,,,0.3328564167022705,,,,,,
39049,81.0,,,,,,,0.19336992502212524,,,,,,
39099,81.0,,,,,,,0.25489339232444763,,,,,,
39149,81.0,,,,,,,0.44208359718322754,,,,,,
39199,81.0,,,,,,,0.30656635761260986,,,,,,
39249,81.0,,,,,,,0.32329052686691284,,,,,,
39299,81.0,,,,,,,0.23674440383911133,,,,,,
39349,81.0,,,,,,,0.2935224175453186,,,,,,
39359,81.0,,,0.0,0.0,0.0,0.0,,3.496923091006465e-05,13.912272453308105,2.0824103355407715,2.4811697006225586,9.348692893981934,0.5220401883125305
39360,,,3.4594333556015044e-05,,,,,,,,,,,
39399,82.0,,,,,,,0.31766951084136963,,,,,,
39449,82.0,,,,,,,0.17145241796970367,,,,,,
39499,82.0,,,,,,,0.34743279218673706,,,,,,
39549,82.0,,,,,,,0.28282690048217773,,,,,,
39599,82.0,,,,,,,0.14474190771579742,,,,,,
39649,82.0,,,,,,,0.3468416929244995,,,,,,
39699,82.0,,,,,,,0.2888867259025574,,,,,,
39749,82.0,,,,,,,0.27427855134010315,,,,,,
39799,82.0,,,,,,,0.37516528367996216,,,,,,
39839,82.0,,,0.0,0.0,0.0,0.0,,3.4594333556015044e-05,13.823659896850586,1.6614975929260254,2.9020824432373047,9.260079383850098,0.529532790184021
39840,,,3.4216947824461386e-05,,,,,,,,,,,
39849,83.0,,,,,,,0.239548459649086,,,,,,
39899,83.0,,,,,,,0.2539026737213135,,,,,,
39949,83.0,,,,,,,0.3028699457645416,,,,,,
39999,83.0,,,,,,,0.2413381040096283,,,,,,
40049,83.0,,,,,,,0.2667466104030609,,,,,,
40099,83.0,,,,,,,0.20199990272521973,,,,,,
40149,83.0,,,,,,,0.37995442748069763,,,,,,
40199,83.0,,,,,,,0.2522665858268738,,,,,,
40249,83.0,,,,,,,0.2515077292919159,,,,,,
40299,83.0,,,,,,,0.4396367073059082,,,,,,
40319,83.0,,,0.0,0.0,0.0,0.0,,3.4216947824461386e-05,14.443952560424805,1.9273371696472168,2.74700927734375,9.76960563659668,0.5288081169128418
40320,,,3.383718285476789e-05,,,,,,,,,,,
40349,84.0,,,,,,,0.3348237872123718,,,,,,
40399,84.0,,,,,,,0.28217124938964844,,,,,,
40449,84.0,,,,,,,0.16599315404891968,,,,,,
40499,84.0,,,,,,,0.22875536978244781,,,,,,
40549,84.0,,,,,,,0.2632061839103699,,,,,,
40599,84.0,,,,,,,0.31437137722969055,,,,,,
40649,84.0,,,,,,,0.34920477867126465,,,,,,
40699,84.0,,,,,,,0.4394274353981018,,,,,,
40749,84.0,,,,,,,0.33356088399887085,,,,,,
40799,84.0,,,0.0,0.0,0.0,0.0,0.16210123896598816,3.383718285476789e-05,14.089499473571777,2.1267168521881104,2.769162654876709,9.193619728088379,0.5157569646835327
40800,,,3.3455136872362345e-05,,,,,,,,,,,
40849,85.0,,,,,,,0.15903493762016296,,,,,,
40899,85.0,,,,,,,0.1745605766773224,,,,,,
40949,85.0,,,,,,,0.2144966870546341,,,,,,
40999,85.0,,,,,,,0.28107574582099915,,,,,,
41049,85.0,,,,,,,0.2846674919128418,,,,,,
41099,85.0,,,,,,,0.27465373277664185,,,,,,
41149,85.0,,,,,,,0.19807946681976318,,,,,,
41199,85.0,,,,,,,0.19343209266662598,,,,,,
41249,85.0,,,,,,,0.3354552090167999,,,,,,
